MNF_max,MNF_min,MNF_mean,MDF_max,MDF_min,MDF_mean,TP_max,TP_min,TP_mean,RMS_max,RMS_min,RMS_mean,subject,trial,muscle,movement_type,rep_idx,N_total,FCF,RIR,RIR_clipped,rep_duration_s,rep_start_s,MNF_max_N1,MNF_min_N1,MNF_mean_N1,MDF_max_N1,MDF_min_N1,MDF_mean_N1,TP_max_N1,TP_min_N1,TP_mean_N1,RMS_max_N1,RMS_min_N1,RMS_mean_N1,MAV_max,MAV_min,MAV_mean,iEMG_max,iEMG_min,iEMG_mean,WL_max,WL_min,WL_mean,ZC_max,ZC_min,ZC_mean,SSC_max,SSC_min,SSC_mean,WAMP_max,WAMP_min,WAMP_mean,DASDV_max,DASDV_min,DASDV_mean,PKF_max,PKF_min,PKF_mean,LFHF_max,LFHF_min,LFHF_mean,FInsm5_max,FInsm5_min,FInsm5_mean,SpecEnt_max,SpecEnt_min,SpecEnt_mean,SM1_max,SM1_min,SM1_mean,SM2_max,SM2_min,SM2_mean,SM3_max,SM3_min,SM3_mean
81.54257653322666,75.43381754978674,77.87272194279177,74.59247397918335,64.51240992794236,69.51537696984127,0.0008010229192972,0.0002533659534161,0.0005393069750143,3.209248160778616e-05,1.815070126947196e-05,2.5751618196294968e-05,1,5,R BICEPS BRACHII,uni-articular,1,86,0.0116279069767441,85,10,2.9763511903816524,0.0,-1.0668040073133431,-1.1510022725117728,-1.147197976934357,-1.0755436183042844,-1.1452420316653389,-1.1523001115201617,-1.1154231377071444,-0.9280836816838404,-1.1540563424888155,-1.1024499240221253,-1.080953974026254,-1.1522891115624565,2.246539310758393e-05,1.1604737798828838e-05,1.8360304928327008e-05,2.2322642396812947e-05,1.1512563551022414e-05,1.822636837507452e-05,0.011497760106273,0.0060482799174233,0.0093007542262822,162.02957633892885,144.1449159327462,151.4504779416392,221.76140912730185,217.72938350680545,219.29282749407625,561.568345323741,234.86549239391516,444.9030860179751,1.3377481415540984e-05,8.013940375955812e-06,1.0837917352836124e-05,69.55244195356285,53.42433947157726,62.462018002358185,0.4003784303589469,0.2965876882821945,0.3454388146464324,7.747599812754582e-13,5.197167367557197e-13,6.747184007401333e-13,0.7546847024346399,0.7332479668686226,0.7423760669950944,3.9227972214447014e-08,1.3243653463906609e-08,2.6573735646909762e-08,3.718392934723893e-06,1.337141380847654e-06,2.544633458653848e-06,0.0004312711676069,0.0001653333754015,0.0003000628244299
109.0108117980504,80.70461107603448,93.22404898528356,97.07242990654206,72.55919003115265,83.34501557632399,0.0117288824457233,0.0025082905025314,0.0067472886440417,0.0001193655272782,5.527237939294924e-05,8.668942455115935e-05,1,5,R BICEPS BRACHII,uni-articular,2,86,0.0232558139534883,84,10,3.0581452599145527,2.9771453075615835,0.9160858252911468,0.4955303548430622,0.6874084830151832,0.9016460232258912,0.4448888104768477,0.6405964636016507,0.8163098371345149,-0.130932782829666,0.5436377260251355,0.8485604859152117,0.188929745049994,0.640281289500848,9.35069320590432e-05,3.800368449006312e-05,6.522065020704046e-05,9.536370195695906e-05,3.875832476984991e-05,6.651573857493245e-05,0.0573788426548955,0.0203858803247741,0.0414710071313138,217.67757009345797,157.8652647975078,188.26168224299064,342.20482866043614,219.6386292834891,279.77777777777777,1102.1152647975075,681.4680685358255,948.8258047767392,5.7918336946520805e-05,2.4287634828184107e-05,4.432738313513598e-05,104.91666666666669,63.73442367601246,83.01817237798547,0.2591033093709297,0.1485114307552232,0.198637242094631,5.082378752145567e-13,7.597052448257639e-14,2.799129641460547e-13,0.8161335094155265,0.7423622076136726,0.7764790930402888,6.399708865629924e-07,1.2278523201475128e-07,3.865975089607729e-07,7.236469669554837e-05,1.2284934201447582e-05,4.6952382994303136e-05,0.0102058673080111,0.0015220998883092,0.0072776629845678
98.40845853378389,81.21660758306615,91.3194151474684,88.79818435754188,73.85195530726256,82.35079143389198,0.0088030892989941,0.0058743354682867,0.0069914872610792,9.276456541260889e-05,7.582547943717152e-05,8.232881270872195e-05,1,5,R BICEPS BRACHII,uni-articular,3,86,0.0348837209302325,83,10,3.410733287803948,6.036084684656068,0.1507181820222003,0.6554719176687062,0.4597894939191753,0.1738975950783944,0.7003532211884939,0.5117036479185146,0.2991133005726291,1.059016464513506,0.6104186164636799,0.2538894381069131,0.8920242289762597,0.5120078220616081,7.316548256204784e-05,5.657788661065824e-05,6.315369309544578e-05,8.321919859321089e-05,6.435229041021651e-05,7.183168269474055e-05,0.0440988659932602,0.0419343968587508,0.0431391779471957,196.9385474860335,165.2877094972067,183.16457169459963,313.87081005586595,250.5691340782123,287.7881750465549,1028.6522346368715,985.5719273743016,1013.9990689013036,4.1108391184575584e-05,4.019533062348014e-05,4.057027458645731e-05,87.91899441340782,66.81843575418993,74.73114525139664,0.3710991393658758,0.145824370311734,0.2261810620364701,5.51318954750101e-13,1.4909799152401382e-13,2.9673643549449386e-13,0.7885205984163566,0.7633960756530904,0.7755747728539459,3.4865340945736414e-07,2.819065310580755e-07,3.067457953457805e-07,3.538795540667741e-05,3.426733301723808e-05,3.487266041587567e-05,0.0054463842746255,0.0044004225481644,0.0049819874956219
106.61263397443196,91.8106544291408,97.52102868600998,93.46288209606988,80.87007299270074,87.5182842996632,0.003945573067276,0.0017710094241393,0.0027874813024516,0.0001298774769113,8.665579021701619e-05,0.0001075817718184,1,5,R BICEPS BRACHII,uni-articular,4,86,0.0465116279069767,82,10,1.6327049219382823,14.280609246700442,0.7429650413243539,3.964924982168733,1.2009319520549722,0.5841738464771863,2.087209235924944,1.1816257279260634,-0.5595566208284621,-0.3915731109413107,-0.539249079168771,1.0835577064794175,1.262514897154394,1.2548587671000566,0.0001036898407447,6.176513788993898e-05,8.298162820953696e-05,5.6415838689572375e-05,3.370345490896591e-05,4.518156638770938e-05,0.0348653306391401,0.0231963203584322,0.0284469114971404,198.4992700729927,172.76788321167882,188.5077798673311,318.87336244541484,242.61021897810215,273.54513541367845,1130.3430656934306,974.9461426491994,1069.3543103234558,6.477507837618732e-05,4.938735301676037e-05,5.546660118808881e-05,78.80203784570597,62.49051094890512,71.6035989899312,0.1860092331888901,0.1054488311772827,0.1365198700591332,3.767270995023901e-13,1.229030606206923e-13,2.6825250757778293e-13,0.7797754310993799,0.740134684215769,0.754103399189011,7.915934790010072e-07,4.000516548778422e-07,5.697820562775722e-07,8.79153925187659e-05,5.220660032904535e-05,6.569142295614238e-05,0.0115422516974365,0.0073677247558674,0.0090564462740803
94.81176301428692,89.12646497670015,91.07218199552392,83.93333333333334,83.88427819988311,83.91698162218326,0.0226472741881066,0.009221939563923,0.0179032318717383,0.0001244468703221,7.944573241795201e-05,0.0001087152825518,1,5,R BICEPS BRACHII,uni-articular,5,86,0.0581395348837209,81,10,4.073821133046391,15.914108285818656,-0.1089217587248417,3.126416418052859,0.4302431533053925,-0.2539828279853515,2.682848808898249,0.7147470610168538,2.746369178581661,2.2424465774595554,3.594448707125525,0.9621551599500038,1.0158683155484902,1.2882025632044978,9.54438866159073e-05,5.55556063349658e-05,7.978610196687957e-05,0.0001296338730049,7.545678064558502e-05,0.0001083905379674,0.075505545861379,0.0451019958114449,0.0653406041983096,191.31502045587376,179.646783625731,185.74496783226985,295.0666277030976,247.38245614035088,275.0572969536641,1086.7157894736845,944.6181286549707,1030.5535425517492,6.372898516863933e-05,3.864962005399521e-05,5.363565025253941e-05,87.61461988304094,66.99941520467837,78.7636107607808,0.2304377640622988,0.1379592350191695,0.1844249572200891,4.158867903005348e-13,2.151958033789825e-13,3.167933375342897e-13,0.7891478317344879,0.7649020468546248,0.7784554044110217,7.334628831842182e-07,2.810843929965583e-07,5.604595345848267e-07,8.578562503135498e-05,3.138659615052492e-05,6.287896207401083e-05,0.0123355480599355,0.0042925202187087,0.0085668911029376
94.73285085277492,83.2014725764209,89.20389853210334,91.65941422594142,73.7489539748954,83.23096234309624,0.008820018189679,0.0055470717463017,0.0070269349811545,0.0001111577432406,8.815629416120786e-05,9.87658492383469e-05,1,5,R BICEPS BRACHII,uni-articular,6,86,0.0697674418604651,80,10,2.846115972872952,19.98872353604498,-0.1146183068001874,1.2755199154091166,0.2069683249129708,0.425552628394156,0.6799990430852036,0.6258104191463929,0.3021058441978875,0.943323648873588,0.6201124891783024,0.6650734541858432,1.3138451609102666,0.9955261323962232,8.694777277793563e-05,6.43994105265971e-05,7.437898746227311e-05,8.252787011090792e-05,6.11257311987955e-05,7.059800636808289e-05,0.0446341653599286,0.037729648496573,0.0405075140895138,183.31882845188284,159.08702928870292,170.67615062761504,277.08535564853554,239.15732217573225,257.4189679218968,1056.7171548117155,987.1824267782426,1012.8189679218968,5.025259547617906e-05,4.418805310660121e-05,4.710930395583291e-05,103.24853556485355,67.4276150627615,81.82622036262204,0.2417077208125697,0.0957944335468244,0.1874422180699046,5.763373872181929e-13,2.616436140188304e-13,4.1044587783988434e-13,0.7623010589995054,0.7571160181141421,0.7596254915364281,5.138835115156382e-07,3.679836980529381e-07,4.34492099530039e-07,5.259201021281922e-05,4.0982869193662434e-05,4.652954297616272e-05,0.0064676526161584,0.0054733598065946,0.0059672188199243
92.13005107824566,81.08751743013362,87.93138478184078,83.60546875,66.74386160714286,77.75074404761905,0.0242173762320667,0.0102888594224048,0.0155052032058294,0.0001228385068175,8.009562175958345e-05,9.6481007689962e-05,1,5,R BICEPS BRACHII,uni-articular,7,86,0.0813953488372093,79,10,4.268379842129505,22.835633626097867,-0.3025104359981886,0.6151457034819485,0.0548927460301585,-0.2828196486662294,-0.7042830278979705,-0.0846538881620572,3.023918307470939,2.619619341190281,2.938660842520273,0.9261997980587632,1.038100174016575,0.9283143376869856,9.547407944281142e-05,5.672835233865997e-05,7.193051564105643e-05,0.000135893209183,8.074440618814826e-05,0.0001023824337003,0.0817104177976152,0.0443017229983091,0.0603891731147702,189.6930803571429,170.72377232142858,182.6674107142857,294.3755580357143,266.2728794642857,278.4507068452381,1107.948102678571,921.0652901785714,1008.4177827380952,5.989426818294102e-05,3.588890994942338e-05,4.637931328120525e-05,70.95926339285714,51.98995535714286,59.95238095238096,0.3395946093072308,0.1545402008372459,0.2375423549129881,4.23155520474331e-13,2.0168234210447997e-13,3.2341936136848426e-13,0.7894496201354484,0.7663702497735506,0.7744911692734844,6.830728513863026e-07,2.598036373684775e-07,4.291404216963697e-07,7.512880391647175e-05,2.704043954724284e-05,4.73710773481965e-05,0.0099135774915375,0.0035668354717739,0.0064518248982435
105.24292295216978,79.69123860661954,92.06943676387328,99.16350947158526,74.13273453093812,84.9893002297167,0.0069352676433872,0.0033902695415784,0.0048607818225208,0.000117607712453,8.223525072878283e-05,9.72940356038954e-05,1,5,R BICEPS BRACHII,uni-articular,8,86,0.0930232558139534,78,10,2.3871162428728,27.1048075854073,0.6440877005172394,0.1789649598516398,0.5494230805628231,1.0855636816491934,0.7558382347805931,0.8537641686645474,-0.0310641394405752,0.1808605248544953,0.0277355195018943,0.8092641029775078,1.1112940631455204,0.9522306855329876,9.054611945761186e-05,6.127370477561751e-05,7.337956554670482e-05,7.206291635943374e-05,4.876588735914913e-05,5.8418663729362347e-05,0.0431104113088361,0.0260196804743015,0.0357298412394533,229.70787637088733,168.3692614770459,194.2602435541015,310.0428713858425,226.1676646706587,265.0156211339368,1115.760479041916,953.6736526946108,1050.0636205156984,5.778661370142459e-05,3.551233206460199e-05,4.84217631507239e-05,123.01296111665006,54.02894211576847,86.23785330634843,0.2376385170230677,0.1094995934272104,0.1813120234224562,6.318308113595414e-13,1.192225023325239e-13,3.629459522897802e-13,0.793850741390308,0.7316451817418074,0.7602906914422111,6.304861837049594e-07,2.690973133360883e-07,4.483021657467865e-07,7.087217190016314e-05,2.6213225892385737e-05,5.1574546335317215e-05,0.0095354878133007,0.0031155810456385,0.0072740331645699
90.2772901577279,81.48078480131115,85.97940340747124,87.65189873417721,73.82408874801901,79.43098156432426,0.0102787999154702,0.0051281715313684,0.0081725972482804,0.0001134913389245,8.027548808524728e-05,0.0001002858963292,1,5,R BICEPS BRACHII,uni-articular,9,86,0.1046511627906976,77,10,3.007321760398966,29.49271794546003,-0.4362584091068339,0.737997709483185,-0.1783846526733645,0.0730778217623222,0.6948464874702616,0.1331748038819864,0.5599767251323177,0.7952359077581408,0.9334162550582116,0.7172415598942451,1.0442531641322377,1.0402404335245676,8.39202513546815e-05,5.60963704478434e-05,7.383136913947501e-05,8.412022018237337e-05,5.623003932103128e-05,7.405044176152612e-05,0.0487680461770824,0.032401102320728,0.0421756254747219,185.26424050632912,159.61965134706816,173.82104371869715,284.868670886076,228.45562599049128,260.2290709609688,1048.501584786054,880.9009508716323,987.1014781306212,5.524787091147911e-05,3.7577816845299527e-05,4.682729411811811e-05,75.81933438985736,57.8621236133122,68.46554929219576,0.3423407159323658,0.1892868642744467,0.2771456291678351,5.163750823309447e-13,3.0223660589060097e-13,3.940129470922438e-13,0.7657737040923881,0.7484104411778906,0.7597219883189426,5.808002288558878e-07,2.7749234369207696e-07,4.4146951107258085e-07,6.419184173020882e-05,2.9588730263086196e-05,4.7142856847566895e-05,0.0086407245026779,0.0038807158665966,0.0061713466785145
91.19612461674946,81.52755522156896,86.91188755161399,83.08707607699358,75.00916590284143,79.19188547848724,0.0079599079604725,0.0039344551445544,0.0058300288831989,0.0001155065968576,8.141751174524775e-05,9.799274263055116e-05,1,5,R BICEPS BRACHII,uni-articular,10,86,0.1162790697674418,76,10,2.599939647094324,32.500833823038924,-0.3699291568241545,0.7526082273428008,-0.0669453334594916,-0.3284140718326033,0.9290305598608376,0.1021780030529843,0.1500629589705556,0.3732385992011359,0.2927950949911929,0.7622931468518349,1.0833202894871463,0.9727841253418376,8.437911787486907e-05,5.55351753041973e-05,7.138265767819392e-05,7.325367421543439e-05,4.8124603857727766e-05,6.190209076422516e-05,0.0434036636320819,0.0278150279890151,0.0353707722958719,178.54071363220493,168.4821264894592,172.21965125961978,274.6489459211732,236.5673693858845,260.25173303769867,1086.2186642268985,916.2658111824014,1007.1517148400692,5.60143296835054e-05,3.841195048563901e-05,4.57497984747084e-05,83.08707607699358,38.081576535288725,63.42706230717431,0.3220816804790041,0.1171664508686986,0.2004647506157432,5.180220609151089e-13,3.1083838915100923e-13,3.963029370895713e-13,0.7544415478400972,0.7296484298880662,0.7435086216105967,6.076368525827384e-07,2.909222264111651e-07,4.272782251665783e-07,6.61336549992879e-05,3.085012676425375e-05,4.5260918402308105e-05,0.0086966124050517,0.0039646126728463,0.0058262892795883
92.54970889271443,86.87763816910079,88.97124843957995,88.17100977198699,77.91856677524432,84.07003257328991,0.0022879642914391,0.0007048962506637,0.0014780798696083,0.0001102468023266,6.116868478118099e-05,8.62962676429927e-05,1,5,R BICEPS BRACHII,uni-articular,11,86,0.127906976744186,75,10,1.461969728253102,35.101567587313184,-0.2722159811320325,2.4239099181219954,0.1791647766288492,0.1187354275902919,1.5039596619395084,0.7345888322927583,-0.8525744367994604,-0.7684606989760453,-0.8973305240500302,0.644709145913845,0.3906345869030777,0.628716031761687,8.2118637080395e-05,4.3652354071078746e-05,6.373096378203874e-05,4.004832658249605e-05,2.128875726738868e-05,3.108086716614121e-05,0.0228903546796917,0.0126862793044996,0.0180882750334112,188.6449511400652,164.0390879478827,179.07600434310532,301.42182410423453,241.95765472312704,273.39847991313786,1037.5472312703582,914.5179153094464,974.6655808903364,5.2084266635502073e-05,2.895488255906377e-05,4.154666196097427e-05,106.6254071661238,77.91856677524432,92.95548317046688,0.2696453671272995,0.1728013503718245,0.2150075288143911,5.153810589193946e-13,2.656343497387531e-13,3.6306983417606613e-13,0.7464757308798312,0.7188930639932407,0.7314207800486736,5.309492811554059e-07,1.624413028571087e-07,3.490794682521742e-07,5.6410106836096485e-05,1.780613107870974e-05,3.799934049445222e-05,0.0070195430741873,0.0025041221589236,0.004954701128135
94.91028461693077,88.0216904520852,91.87774645514304,89.26440177252584,81.82570162481537,86.07912626744952,0.00407684317821,0.001942825759601,0.003059529397323,0.0001334250466583,9.18266300539785e-05,0.0001142257467903,1,5,R BICEPS BRACHII,uni-articular,12,86,0.1395348837209302,74,10,1.6136461096199357,36.564331432746215,-0.101809635128589,2.781298118200973,0.5265145543010379,0.214903024385549,2.276051796808815,0.9950509677001944,-0.5363518201729408,-0.3308333641037403,-0.4648522040430037,1.1628645010712395,1.4394025179421104,1.4503005394989437,0.000101520272859,6.241721215083353e-05,8.551142477673252e-05,5.45903294087376e-05,3.3662658499138976e-05,4.601496906164824e-05,0.0339179205887628,0.020710856022223,0.0278461609079454,191.54652880354504,176.14874815905745,182.6945851815273,307.7967599410898,260.3545051698671,281.127723525415,1121.384047267356,984.578792341679,1064.6242454038982,6.742666711525109e-05,4.584677266456735e-05,5.64946187751555e-05,98.56277695716396,42.7725258493353,66.27180687560777,0.3375798318525446,0.0881531277467303,0.1880613998970143,4.4677725349943677e-13,2.281123307510087e-13,3.15036834818268e-13,0.7385660259962995,0.7201709056017958,0.727819734262357,8.442283739028261e-07,3.906429237804319e-07,6.138463416370572e-07,9.547961300330128e-05,4.442579145884471e-05,6.861217362205502e-05,0.012913239090093,0.0062728356693884,0.0092293681081099
90.35945560243844,80.88073251399254,86.30263103553214,81.38395638629284,75.61856474258971,79.17712742777626,0.0134103925331034,0.0047169869069228,0.0095949059758827,0.0001278083790788,7.57730889343956e-05,0.0001058495083456,1,5,R BICEPS BRACHII,uni-articular,13,86,0.1511627906976744,73,10,3.054968791194831,38.17877165954608,-0.4303270115002101,0.5505485779114657,-0.1397563638724472,-0.4782093215039511,1.0494543663797715,0.1002647456405463,1.113552721293681,0.649875747880297,1.322374409121901,1.0373025153219215,0.8902320188749795,1.2039018256891585,9.189132975211196e-05,5.664598979923645e-05,7.838955448789993e-05,9.371601858753912e-05,5.7680825196680807e-05,7.987026984907793e-05,0.0576180895716834,0.0337669745905949,0.0458699942257716,187.5733229329173,161.05772230889235,178.6373992965949,280.86895475819034,231.7659906396256,262.0675674690539,1091.3294392523364,967.3283931357254,1027.6485546337742,6.198390964775783e-05,3.60106636005025e-05,4.930725616798741e-05,81.38395638629284,72.67238689547582,75.9035964865386,0.3669306691063572,0.1508276214611771,0.2366114476413754,6.538503740721109e-13,2.7762260604404e-13,4.197982311478114e-13,0.7689981919400275,0.7443124557497373,0.7575019763644258,7.34996123330902e-07,2.516102086726961e-07,5.036909568967485e-07,8.101832857454851e-05,2.7247486947828643e-05,5.352579871283144e-05,0.0109910013987286,0.0036450550439232,0.0069639189015536
90.00847355825661,77.0022170773514,83.67848248433758,86.67814113597245,67.17555938037864,78.01032702237521,0.0014406469428971,0.0013561382662553,0.0014064984978909,9.244178504812364e-05,8.970839927606653e-05,9.13537894387298e-05,1,5,R BICEPS BRACHII,uni-articular,14,86,0.1627906976744186,72,10,1.3833521274399274,41.23453456792084,-0.4556638676951965,-0.6610530870612198,-0.4533631205106883,-0.0125675168118784,-0.6189748754566657,-0.0510011341282617,-1.002355906663322,-0.5382365177260886,-0.916905850888876,0.2466736036371094,1.3669406327555296,0.7774900755954316,6.78376410287193e-05,6.535578682768538e-05,6.699358356682795e-05,3.130553569315799e-05,3.0160216161147896e-05,3.091602228143529e-05,0.0177041205188894,0.0159685527580197,0.0170202485577849,177.69018932874354,147.35283993115317,161.7991967871486,286.0378657487091,225.3631669535284,252.81124497991968,985.9638554216868,918.788296041308,941.1801491681008,4.345865899996995e-05,3.907131143311373e-05,4.140329327821147e-05,97.51290877796902,41.17211703958692,74.39873780837635,0.4206315775559627,0.1734539359393518,0.2715113647635085,6.826023795612947e-13,2.81910905313024e-13,4.708326119141159e-13,0.7228365422532241,0.703701798929933,0.7150534165547967,3.616055624897087e-07,3.245394052239959e-07,3.4824894906212125e-07,3.967659498483443e-05,3.182905162551821e-05,3.594236076182086e-05,0.0053669613370415,0.0038718851063399,0.0045741234673064
94.3159125295483,83.56681415084023,88.97415564545535,93.1825657894737,70.4046052631579,84.16069358021493,0.0039911838550263,0.0021723342615938,0.0029817945798722,0.0001475687263044,0.0001085653624412,0.0001263615358871,1,5,R BICEPS BRACHII,uni-articular,15,86,0.1744186046511628,71,10,1.4484697361942764,42.618680812540696,-0.1447164457588264,1.3896482377224464,0.1795122110014382,0.5595190606962482,0.0191195403272419,0.746342270935527,-0.5514939382424974,-0.2496985391136915,-0.486110311031567,1.479049939684833,2.012012507875612,1.8072916691408447,0.0001124415394533,8.217684470767376e-05,9.2600131273914e-05,5.430060046673307e-05,3.968508465628725e-05,4.474075230428379e-05,0.0297209534195046,0.0234879496048669,0.0260281301044119,202.5977011494253,163.5871710526316,182.11261090945757,281.1559934318555,242.2746710526316,257.99607675798694,1116.1200657894738,1039.863711001642,1076.8964562987928,6.584796439814356e-05,5.105462403369541e-05,5.9584478397235343e-05,107.5008210180624,55.90953947368422,86.22121665514362,0.1956703710329621,0.1391881642822147,0.1657086995015619,4.63571399692428e-13,2.1677578795209677e-13,3.414171688537015e-13,0.7455432430894795,0.6913391278313594,0.7158306484998965,9.022531797925052e-07,5.232429406203332e-07,7.109770352236546e-07,9.427725106718576e-05,5.446512726493263e-05,7.637338419839706e-05,0.0125205841885797,0.0066283073755471,0.0101270791458662
85.85580361795516,85.81449929485724,85.83531798324547,80.78658976207643,77.15573179524154,78.66858928142274,0.0179307353796919,0.0082390822000585,0.0116750623101873,0.0001365814982729,9.259250398092986e-05,0.0001083910286147,1,5,R BICEPS BRACHII,uni-articular,16,86,0.1860465116279069,70,10,3.303527468513252,44.0679446659149,-0.7554387503332158,2.091798095654637,-0.1956040141876802,-0.530749776005425,1.3532152134012163,0.0343370430548386,1.9126200329870944,1.894991212996296,1.8912338643534965,1.233427753576222,1.465602056321423,1.2786641822727334,0.0001059517751939,6.336130893104084e-05,8.017235003024568e-05,0.0001167236792645,6.980312588352157e-05,8.832331174896803e-05,0.0656531005722023,0.03816456435649,0.0490961761427387,177.00432588320115,164.29632299927903,169.74260994953136,267.7757750540736,256.88320115356885,262.3294881038212,1094.703677000721,862.3287671232877,982.7522230233116,6.340620825208196e-05,4.290557493007679e-05,5.019367795178279e-05,89.86373467916367,77.15573179524154,81.69430425378515,0.2439374398413967,0.210006612987751,0.2228818781064376,4.1519752073841837e-13,3.6385000082134654e-13,3.863751395957512e-13,0.7727620024106633,0.7527716219802635,0.7594613024338552,7.998450326400115e-07,3.677016436798908e-07,5.208866025246283e-07,8.432670125409317e-05,3.8553176637302754e-05,5.468223485719656e-05,0.0109506592745052,0.0049911724843074,0.0070487714965759
90.0221416519426,80.6219413997354,85.45407665048988,84.84235860409146,71.29277108433735,78.84303519734776,0.0063805735563904,0.0031915192849504,0.0047581635925125,0.000136236670181,9.630105756642672e-05,0.0001164602740692,1,5,R BICEPS BRACHII,uni-articular,17,86,0.1976744186046511,69,10,1.9773517780283711,47.37226625160808,-0.4546771889464621,0.4697053403283703,-0.2411654050653025,-0.1740309208268174,0.194630719591421,0.0569524919545189,-0.1291181870983313,0.1105992179825362,-0.0003274435825222,1.225719036736339,1.5924667902884435,1.516032269932014,0.0001101230096701,6.741327762602533e-05,8.739807310765333e-05,7.259896586675628e-05,4.444243084162115e-05,5.7639888792714734e-05,0.041585334629909,0.0235443978802857,0.0327073729271397,185.0578313253012,175.9566265060241,180.43482328833989,266.647412755716,210.844578313253,245.1198203161624,1148.2686746987952,897.9855421686747,1033.0694962763207,6.333773239448637e-05,4.185738697937627e-05,5.364268341009793e-05,86.35740072202167,36.40481927710844,63.6737520479028,0.300171970456728,0.1727971156705343,0.2228177742924673,7.851018843469706e-13,2.2128462123600026e-13,4.710689610389877e-13,0.768969623696814,0.7282238644180588,0.7431689682181634,7.939192065780235e-07,3.7350338331746826e-07,5.934771121918331e-07,8.372237458208712e-05,3.624030269252133e-05,6.296267057450331e-05,0.0108288747281113,0.0041398193731063,0.0082771091566631
90.02376613586658,88.17610692669223,88.97134772340529,83.27589208006962,78.8929503916449,81.06091850506427,0.0124561189145637,0.0055065254031374,0.0092431702080989,0.000137290397552,9.137679975532482e-05,0.0001167913788558,1,5,R BICEPS BRACHII,uni-articular,18,86,0.2093023255813953,68,10,2.7373219192224028,49.35041214681638,-0.454559919940098,2.829535971263411,0.1791766418406856,-0.3118070532671117,1.6965084107115145,0.3444824484177908,0.9448644423588376,0.9289898859495346,1.2261853804670635,1.2492753713903149,1.424014415855038,1.5257721781375984,0.0001047778968455,6.420331309025145e-05,8.680964254118211e-05,9.57065777381728e-05,5.859380996084107e-05,7.925274443640463e-05,0.0568275638397023,0.0328514796438336,0.0456376662219007,175.16521739130434,155.59442993907746,167.5967028670173,289.0226086956522,247.6362053959965,268.3713308358876,1094.7826086956522,888.6414273281114,1007.7589838675092,6.766422818545425e-05,4.379943884881934e-05,5.610571866908305e-05,65.74412532637075,59.16971279373368,62.80374314148408,0.2328492062495478,0.1849749415871588,0.2028157730939682,3.966924633964336e-13,2.447937477749764e-13,3.242772771568334e-13,0.7658145968034333,0.760181057254983,0.7629318235590251,8.47899233365016e-07,3.7002458816200966e-07,6.234173167300222e-07,9.679437772149047e-05,4.0192592344923095e-05,6.878906199882575e-05,0.0139019038137152,0.0053330420575011,0.00935959716698
91.0960120737936,83.95800412560077,86.50192721092334,84.88879159369529,70.49518810148732,77.51853613890792,0.0187211325963153,0.0077588583872901,0.0122002058007288,0.0001694558867121,0.0001091685766105,0.0001345007952758,1,5,R BICEPS BRACHII,uni-articular,19,86,0.2209302325581395,67,10,2.7206454584438475,52.08852818321871,-0.3771561279648012,1.5118512900199388,-0.1159388756641719,-0.169946979276103,0.0370196895979931,-0.1147576946381883,2.052339651717761,1.7252246262829207,2.0348446281318453,1.968342796045123,2.0326476701705203,2.046719314134724,0.0001176446609549,7.433767302041065e-05,9.477441088557944e-05,0.0001068052799614,6.742940634575772e-05,8.599808746490603e-05,0.0619836233596758,0.0395746558775153,0.0491685136109307,182.84689413823276,164.26532399299475,171.1941486006602,268.7629046369204,232.61733800350265,245.76831205352104,1102.5888013998251,910.6252189141856,1010.6265064794512,7.688460945925375e-05,5.27106885043048e-05,6.202009975827694e-05,80.47898423817864,68.29221347331584,74.57930758509245,0.2351495081876236,0.1378735312791355,0.1811831249464185,4.754504707122454e-13,3.3115532179169493e-13,3.9756348572276203e-13,0.7674752613879122,0.7416989728567285,0.75529854551263,1.203100103989791e-06,5.41957190451079e-07,8.001411043621363e-07,0.0001240794912155,5.885988689780565e-05,8.337015974742706e-05,0.0160009862425338,0.0076478835399298,0.0106633964028955
84.30519432108555,72.42764999260075,76.58879976368992,73.76953125,61.474609375,67.16909950657895,0.0011969561651345,0.0011064378961692,0.0011484690658116,9.54034566873276e-05,9.195498710344806e-05,9.362704900783782e-05,1,5,R BICEPS BRACHII,uni-articular,20,86,0.2325581395348837,66,10,1.219763988374126,54.80996775884249,-0.8673748605150825,-2.090092931546945,-1.3006369543812475,-1.1479242690925566,-1.745544300343351,-1.4564752926558882,-1.0454334654414563,-0.6265094821303828,-0.9874690483494166,0.3128825018657582,1.4437934435572697,0.8443611702618001,6.492399922240611e-05,6.1136747299144e-05,6.342847304042236e-05,2.640277013651464e-05,2.4911160734281868e-05,2.58107681592237e-05,0.0152758449454877,0.0124506266126054,0.0133988358281734,181.96484375,135.244140625,154.82014878776803,285.2421875,196.3352826510721,238.39366192535735,976.216796875,790.2495126705653,876.5232750568551,4.377319721336797e-05,3.703934463355093e-05,3.947436191619741e-05,71.310546875,36.884765625,50.79025036549708,0.4695379937199671,0.4056079654107766,0.43814319425086,1.0179728498752052e-12,2.89941354181908e-13,6.66497362249517e-13,0.7502414424388648,0.6812821232069622,0.7094767277006762,3.67270047602786e-07,3.082545964009626e-07,3.349810289492979e-07,4.071875136215396e-05,2.880337776242575e-05,3.30981364077449e-05,0.0058427444533314,0.003311420683723,0.0042010130900115
94.7822503915231,79.56567363175265,85.67237510877978,89.92857142857143,70.99624060150376,78.35881370091897,0.0111141091308021,0.0027170187357241,0.006302975848695,0.0001875592866673,9.250347081369693e-05,0.0001357317234419,1,5,R BICEPS BRACHII,uni-articular,21,86,0.2441860465116279,65,10,1.900322411575054,56.030525864396544,-0.1110522297597541,0.1397399689765928,-0.2150769919485003,0.2733190358935524,0.1360330867070716,-0.0058227610546651,0.7076355005350978,-0.0571441060550544,0.4221316975862336,2.3730487564765683,1.4625563489277311,2.08292877962918,0.0001364380071019,6.641166716199405e-05,0.0001001198813751,8.64793722536882e-05,4.2094130576069306e-05,6.345962298442059e-05,0.0492802753099635,0.0261753028814228,0.035888248162639,194.0563909774436,162.50250626566415,178.27944862155388,280.8295739348371,211.4110275689223,251.90517961570595,1124.8959899749373,1003.4135338345864,1066.5213032581453,8.44284925249361e-05,4.720591914023611e-05,6.180356220845621e-05,94.66165413533837,61.53007518796993,78.88471177944862,0.4120577173049196,0.1904096169913914,0.2807682482242821,4.686196076373437e-13,2.091938027919011e-13,3.561110881876336e-13,0.7500909801323907,0.7283152340221566,0.7375068391412617,1.4428215354151332e-06,4.044025322200662e-07,8.27223775414706e-07,0.0001492445738982,4.723045698019463e-05,8.6798050721301e-05,0.0194593291999912,0.0068023470888269,0.011445786703353
85.88558802109672,81.46812727904728,83.0037794230812,81.08313817330212,75.36267605633803,77.76206327216488,0.0080611201603557,0.0037761391611542,0.0061606893160981,0.0001488658496349,0.0001020721273096,0.0001287801190041,1,5,R BICEPS BRACHII,uni-articular,22,86,0.2558139534883721,64,10,2.030557629083752,57.93164239315153,-0.753288659889101,0.7340436514679851,-0.533995536933221,-0.5046673206490924,0.9988879923835804,-0.0831864457003475,0.1679543807533605,0.3172714367876597,0.3832206609083673,1.508047450901131,1.789887485663426,1.8784376582623603,0.0001085512874314,6.190120957083106e-05,9.1232760468967e-05,7.36320885357418e-05,4.18902546102844e-05,6.17972036890502e-05,0.040786018887264,0.0220153831653546,0.0335035534831413,172.48594847775175,146.29225352112675,156.99375121402366,286.0023419203747,248.25352112676055,261.32902790147074,1078.720657276995,753.6267605633802,970.005345369118,6.785702100464446e-05,4.541397120146216e-05,5.752271415037766e-05,94.57276995305163,50.24178403755869,76.2820566385563,0.3431937789373685,0.1390771136316508,0.2713990424836079,5.645741461658817e-13,3.7011738169247064e-13,4.790581405651173e-13,0.7355174885083973,0.7147818284779464,0.7280130460548003,9.492922753386332e-07,4.237956889675574e-07,7.068562432449844e-07,9.7979944345908e-05,4.301549212355227e-05,7.233359740189725e-05,0.012441902945429,0.0053144761978714,0.0090761810429889
91.07998842294762,76.93410588023028,83.98837786350235,85.92365529207636,69.90399074609601,78.3992673992674,0.0311953054956639,0.012665449884507,0.0223388849796374,0.0001445162311294,9.207041788059856e-05,0.0001203782772542,1,5,R BICEPS BRACHII,uni-articular,23,86,0.2674418604651162,63,10,4.1182916951225295,59.96299413941521,-0.378312850777073,-0.6823302074397084,-0.4163281421696941,-0.0789271484789935,-0.0798073066095401,-0.0005782785859828,4.257416598879862,3.4597810325499028,4.807464848722059,1.4108106589650136,1.4477421784203903,1.6312857875899816,0.0001034815857537,6.762636214043665e-05,8.75714808918237e-05,0.0001421125192758,9.287210495696184e-05,0.0001202629789213,0.0745321448256949,0.0509278896462411,0.0662589159014329,179.85714285714286,153.64314632735685,164.08020050125313,267.2371312897629,222.81897050318105,247.09118951224212,1047.1035280508966,957.539039907461,1004.3844225949488,6.057673968413575e-05,4.2096143990454615e-05,5.438558968288466e-05,88.10815500289185,37.13649508386351,56.31154810102179,0.2918603877149163,0.1200460918440025,0.227870432448739,7.867014352714374e-13,2.5576512777311976e-13,4.868271408177531e-13,0.7724203756406739,0.7518983539228394,0.762154329275122,8.028199706799805e-07,3.55677760773987e-07,6.213312879730768e-07,7.764074068341797e-05,3.7042344293335285e-05,6.357121144083822e-05,0.010558259997258,0.0047477089268008,0.0080250031923857
87.22020084316013,74.68156065416095,82.3645999505935,83.62361623616236,66.20202952029521,75.49354243542435,0.0136947884190551,0.0055371795426416,0.0091532234721197,0.0001528553216174,9.71166836802436e-05,0.0001228457852481,1,5,R BICEPS BRACHII,uni-articular,24,86,0.2790697674418604,62,10,2.581674951955904,64.08207995171767,-0.6569450043968924,-1.3859982966649504,-0.6103826001523971,-0.2812235146802029,-0.8113549127398313,-0.377281132807937,1.163825778837439,0.9398266010267196,1.201587685387534,1.5972330787006963,1.6203682854564228,1.70387097006948,0.0001134700389819,7.20245988365092e-05,9.143582483334368e-05,9.769779369053618e-05,6.201323680601745e-05,7.872631780726337e-05,0.0572015987987664,0.0329735068777246,0.0424039907343114,184.6688191881919,141.69557195571954,159.11715867158674,274.09963099630994,235.77214022140225,248.93511685116852,1121.9501845018451,923.3440959409594,1012.7749077490774,7.216633273868009e-05,4.479817028154579e-05,5.513771800106e-05,99.88376383763838,40.65036900369004,70.84778597785977,0.5324171640513684,0.2161656238726514,0.3539205225284659,9.08076712131062e-13,3.174080601851903e-13,5.955258680779874e-13,0.7574542393809821,0.7339529355922367,0.7426714236474102,1.016515124738372e-06,4.014477709762375e-07,6.469602209877938e-07,0.0001093073961455,4.1747037183531535e-05,6.662036049895512e-05,0.0146391386956246,0.0051248059549865,0.0084494404183678
86.79763446836152,77.4121734982617,83.2946295095065,80.21329639889197,71.49445983379502,76.72576177285319,0.0030448115789468,0.0026473496686089,0.0028717279159437,0.0001081312912659,0.0001008179897237,0.0001049606025997,1,5,R BICEPS BRACHII,uni-articular,25,86,0.2906976744186046,61,10,1.7192636945507616,66.66454902085351,-0.6874494237784217,-0.53298762225768,-0.4992366235209939,-0.5811729041872201,0.2344865994479845,-0.2175342375536061,-0.718785485846837,-0.0817732048402024,-0.5162101941264108,0.5974163756189922,1.7469850905565456,1.1777534257919966,7.746504929060922e-05,7.309609032542897e-05,7.553987641411616e-05,4.4423959958554296e-05,4.191848865366141e-05,4.331992912707853e-05,0.0248167847263475,0.0220847876306553,0.0230791237840266,167.4016620498615,146.47645429362882,155.77654662973222,266.7963988919668,233.66481994459835,247.033702677747,1027.078947368421,915.47783933518,953.8407202216068,5.043144919869881e-05,4.521533466253475e-05,4.741265785795753e-05,83.70083102493075,59.28808864265928,74.40073868882733,0.3346357072275474,0.2298466316194163,0.2713258991301269,7.920917334975523e-13,3.078147878748615e-13,5.283533550191524e-13,0.7345199035810059,0.7101181986963887,0.7226075049056878,4.867048260098072e-07,4.350972766935353e-07,4.579884602408403e-07,5.347642065488137e-05,4.27460858482025e-05,4.713331259247294e-05,0.0073644168185915,0.0048866686659887,0.0059500423489923
90.71948397693164,79.07416615018514,84.55377731827697,83.28436426116839,71.38659793814433,76.79467353951891,0.0147455010910368,0.0064100869036917,0.0095956503952082,0.0001476771799232,9.729704202010104e-05,0.0001171133150848,1,5,R BICEPS BRACHII,uni-articular,26,86,0.3023255813953488,60,10,2.772263075139364,68.38460683258421,-0.4043371145756748,-0.0138010682429082,-0.3487583816330118,-0.3110618957248203,0.2131719214319105,-0.2086004053721456,1.3495617237992938,1.2484129294475814,1.322577985153646,1.4814744470182883,1.6265381067296625,1.5352423804567674,0.0001122703000453,6.619587046198609e-05,8.62872239011398e-05,0.000103798752385,6.120094775039857e-05,7.97762737259148e-05,0.0579498895496483,0.0316884756247834,0.0446623470852596,177.3848797250859,148.18127147766322,166.92926689576174,282.3015463917526,227.13917525773195,250.5741695303551,1097.839347079038,899.9037800687286,1012.3917525773196,6.732667798805024e-05,4.134482433289393e-05,5.358659177515836e-05,82.20274914089349,59.48883161512028,73.91036655211913,0.2762069411559609,0.2074286902980034,0.2453912853869314,8.184506100446505e-13,2.5078157648378054e-13,5.260090527334852e-13,0.778185876925178,0.7394868602287697,0.7550799190574443,9.127423757198276e-07,3.741041946095127e-07,5.992727120683261e-07,9.452234719232406e-05,3.536338866842752e-05,6.24673954571465e-05,0.0118637365825169,0.0039666150079456,0.0079648180477327
89.57547962286291,76.85858128024637,83.66893528325687,79.19516129032259,73.10322580645162,77.12200664900526,0.0058772586529008,0.0023613444723908,0.0037242050412567,0.0001750830529758,0.0001107122967481,0.0001364692409259,1,5,R BICEPS BRACHII,uni-articular,27,86,0.313953488372093,59,10,1.4770579546717926,71.15766402490351,-0.4869210367049246,-0.7059231858825489,-0.4545040874595795,-0.6707213978251303,0.5523961680081527,-0.1661644149879179,-0.2180898648041808,-0.1828804899294924,-0.2830836424794698,2.094139482461594,2.0854563029856696,2.10462388306492,0.0001323187046954,8.0090618788716e-05,9.98648318517631e-05,6.516091891279234e-05,3.950458639221019e-05,4.920007356713478e-05,0.0366517387545575,0.0221291082900018,0.0273966926183504,180.4363929146538,160.42096774193547,170.4771847349921,300.0515297906602,203.06451612903223,252.9924454140911,1151.375806451613,899.575806451613,1018.1674458469688,7.930717899583978e-05,5.113578549104389e-05,6.15187996863244e-05,83.25645161290323,52.79677419354839,71.70695288556439,0.2869625318792203,0.1399095392483642,0.195022102609786,9.804758597304344e-13,2.364144435492044e-13,5.830496935500837e-13,0.720266537072301,0.7066747839662724,0.7139793387120684,1.2930694511897646e-06,5.484856736425972e-07,8.093980139159249e-07,0.0001307027348047,5.415759815569281e-05,8.223692090559794e-05,0.0158339601653874,0.0059484151374948,0.0102267282310293
84.28447181105525,81.37406825777553,82.80529671377843,74.49704142011835,70.87703703703704,72.70543355979254,0.0025660094548614,0.0016104500136137,0.0022197533728578,0.0001063002703667,8.430130093787095e-05,9.829630519383888e-05,1,5,R BICEPS BRACHII,uni-articular,28,86,0.3255813953488372,58,10,1.6080872893604123,72.63551609675524,-0.8688707867749591,0.704660742300749,-0.5577158094326098,-1.083937240954514,0.1124771721772105,-0.7387360483285625,-0.8034240053376261,-0.4483333597355436,-0.6945053911211516,0.5564834528861535,1.1819709197948374,0.9817138407085452,7.811955903984747e-05,5.923080483611421e-05,7.034199017076828e-05,4.194505314609761e-05,3.1755991472896815e-05,3.773382304867504e-05,0.0228842026900056,0.0179920472911286,0.0204938142604933,177.1925925925926,160.4059259259259,169.02642924976257,277.9125925925926,212.31656804733728,243.61268317627292,1024.3343195266273,880.3674074074074,948.8734151508512,4.648627708141955e-05,3.865428019498211e-05,4.371332149967017e-05,72.74222222222222,54.09037037037037,65.24745196873403,0.2433934761825299,0.0898829182395987,0.1830711622374151,6.854227788644723e-13,3.135181024834149e-13,5.332081551846305e-13,0.7310429626094862,0.6939894477351309,0.7144931486649652,4.582861531522453e-07,2.979115034854105e-07,4.019424673652301e-07,4.469418246808927e-05,3.191705487076677e-05,4.024216680484268e-05,0.0052238368390277,0.0043863045548947,0.0049186190480181
90.87961779489528,82.1667365290646,85.23837897292286,82.06174957118354,77.74271012006862,79.90222984562608,0.0050506746956886,0.0022484102148516,0.0036558465657583,0.0001729187363926,0.0001151274290983,0.0001450036478753,1,5,R BICEPS BRACHII,uni-articular,29,86,0.3372093023255814,57,10,1.3881168305195075,74.24439750329559,-0.3927772995225796,0.9522807951157424,-0.2669430040679968,-0.4185950736559526,1.4692084835048855,0.1942681884323268,-0.3642062641558379,-0.2228045064311106,-0.3017776052798654,2.045755652704729,2.236492165923764,2.355675343615336,0.0001379397250674,9.047503601548392e-05,0.0001135410660662,6.387518642917969e-05,4.189590627245999e-05,5.257699882179323e-05,0.0358246417304807,0.0219723612051988,0.0300883183717496,202.99485420240137,164.12349914236708,179.95997712978843,261.3018867924528,231.0686106346484,243.305889079474,1170.459691252144,1081.9193825042885,1135.1875357347055,7.74683645794488e-05,5.0140188376113344e-05,6.65009525222633e-05,99.33790737564324,47.50943396226416,71.26415094339623,0.4292926162625827,0.1756418106218243,0.3146706317057504,4.583056667869198e-13,2.809082126727113e-13,3.9014925639765147e-13,0.7149812928943852,0.6978773329854486,0.7059847737436638,1.2284396622867535e-06,5.435437149568619e-07,9.176186215933878e-07,0.0001259933625104,5.460551622571056e-05,9.635488337144624e-05,0.0159573400092121,0.006780164854361,0.0124920359690499
83.75425083388723,76.03287023608003,79.35247958474422,80.06359300476947,68.05405405405406,73.31549672166807,0.0029509893010244,0.0019720862288859,0.0024462130267023,0.0001221724059677,9.956377748704731e-05,0.0001107560906538,1,5,R BICEPS BRACHII,uni-articular,30,86,0.3488372093023256,56,10,1.4992932357098567,75.63330845099503,-0.9071466270145576,-0.963865404301219,-0.9703550941287672,-0.5943398339230868,-0.4453748196142533,-0.6596464795655794,-0.7353705808143596,-0.3204893331247207,-0.6325755672932861,0.911308949664877,1.7040801417463205,1.348235774385234,8.555129208876852e-05,7.011888907620259e-05,7.730736738540869e-05,4.27416701539598e-05,3.514298570856539e-05,3.866011120847725e-05,0.0219097005686701,0.0173995757571231,0.0199595550922422,154.12241653418124,125.70047543581616,144.64843616805953,246.19554848966607,225.46275752773371,237.95022495227585,1028.817170111288,861.9461172741679,955.1791774061747,5.12729401743966e-05,4.1963102351200673e-05,4.7563588440518295e-05,58.04610492845787,48.03815580286169,52.65354913970557,0.4560071497109985,0.1479746475196708,0.2759291398020453,6.686497537415226e-13,4.290971844680319e-13,5.701852337676766e-13,0.7169889473431037,0.6846480916541201,0.700232590468175,5.671105537415231e-07,3.876718604676774e-07,4.887130712173404e-07,5.490515166751001e-05,3.685634520309245e-05,4.75714836775616e-05,0.006747937458601,0.0042962099248271,0.0057628209675831
85.69058707591863,75.36512225534428,80.35031011607207,82.45846645367412,62.34664536741214,73.66221349450221,0.0064415976314508,0.0024574216839937,0.0038763590876195,0.0001813562763048,0.0001120226084805,0.0001370211086303,1,5,R BICEPS BRACHII,uni-articular,31,86,0.3604651162790697,55,10,1.492146181090476,77.13339580388482,-0.7673654794522812,-1.1724618578819828,-0.851106358586761,-0.3837024558405457,-1.5732205498236371,-0.614697559912666,-0.1183308762101896,-0.1489157013432314,-0.2414741410694829,2.234378933540547,2.130280341658871,2.1208578398047706,0.0001374224238351,8.403245857485522e-05,0.0001032178357925,6.832917976236637e-05,4.178262038749751e-05,5.136867695745226e-05,0.0375214342796392,0.0212927406958238,0.0279004797612412,178.4251592356688,168.93929712460064,174.11243327024954,302.72133757961785,193.07348242811503,249.73458856487795,1142.3514376996804,1039.7811501597444,1082.2230706877488,7.919974394719616e-05,4.5578061046982346e-05,6.007287721730421e-05,82.45846645367412,54.12898089171974,64.97057616518454,0.4416376169168663,0.2078817907192791,0.2972648550221696,1.011648773816898e-12,2.785452468752492e-13,6.368716198735662e-13,0.7359069901736053,0.6588025333412478,0.691820597040799,1.314949183492217e-06,4.7260839052946084e-07,7.935788254917052e-07,0.0001309552077816,4.306912726415249e-05,7.966226131934955e-05,0.0159083068033826,0.0047197239126141,0.0099229737480433
87.38200411136441,82.73474694309309,85.42366851604093,80.40672268907564,78.15939597315437,78.952291654917,0.0023891665296266,0.0014420279064532,0.0018534425816299,0.000116630817597,9.0852043260704e-05,0.0001020580388875,1,5,R BICEPS BRACHII,uni-articular,32,86,0.3720930232558139,54,10,1.4174991661769525,78.62633610215524,-0.6452646742879059,1.129720430100086,-0.2447994205312383,-0.564160394972942,1.5515501180441025,0.0711166747043139,-0.8346847759594861,-0.5078731940783608,-0.7946802451486675,0.7874253781014519,1.4060631872822904,1.0923704737469904,7.621757170023187e-05,6.541150733816323e-05,6.910534468609157e-05,3.602021855570927e-05,3.0965256849519686e-05,3.2676317652107915e-05,0.0199783105078626,0.0169626861577306,0.0180184766988807,162.9294117647059,147.86912751677852,155.79335062884215,283.5394957983193,215.4664429530201,243.21542496193103,876.0100840336135,819.6174496644295,853.6859285996278,5.515594502021543e-05,4.245503349730396e-05,4.712209123636064e-05,82.52268907563025,35.971428571428575,60.622200289511774,0.3442600470153802,0.2108540262979489,0.2611282849440524,6.637433913896135e-13,3.305757026975995e-13,4.746165702315301e-13,0.7403568657410352,0.7095399429515414,0.7272820974673425,5.897045675152009e-07,3.509267403136558e-07,4.4779016840174957e-07,6.371418162691031e-05,3.7617930846695055e-05,4.713055502016128e-05,0.0084967178651822,0.0047153376735483,0.0060272518579361
83.97651700034311,79.55617210994268,81.22910172813411,76.3655737704918,68.10983606557377,73.6136612021858,0.0060163022568187,0.0025844230779436,0.0040427203803259,0.0001800324334389,0.0001178820888872,0.0001454098394282,1,5,R BICEPS BRACHII,uni-articular,33,86,0.3837209302325581,53,10,1.4524403220939206,80.04462938551212,-0.8911015728875549,0.1367718076187773,-0.7460837267337689,-0.9195933774718372,-0.4343516903853541,-0.6209919571189393,-0.1935109329484589,-0.1040187333348592,-0.195979390131825,2.204784100534838,2.330725449393075,2.367624033573302,0.0001450937948891,8.693660785028726e-05,0.0001114172590514,7.029961468018591e-05,4.212178775907484e-05,5.398294521160227e-05,0.0392847341055802,0.0228081765236385,0.0292326066907812,187.81803278688523,136.21967213114755,160.29890710382514,305.4622950819672,208.45737704918037,248.3601092896175,1176.4426229508197,994.8163934426228,1064.3021857923495,7.998145185462516e-05,5.246354927815987e-05,6.365498501304705e-05,88.74918032786886,59.85409836065574,78.42950819672132,0.2967076240530337,0.179700345124065,0.2391115912442645,1.0110701520423917e-12,3.556330795137016e-13,6.635456043641377e-13,0.7251279549190096,0.6931870471389844,0.7038769374645873,1.3577750839799558e-06,5.567144304908969e-07,8.895555302702338e-07,0.000133879825956,5.7914638768891725e-05,8.755058204632753e-05,0.0155249711649683,0.0077240770462774,0.0103807014477748
88.97261736173111,76.66576967041674,84.20854201395817,79.93650793650794,68.8342151675485,74.75543797766021,0.0021567412063305,0.0018414238790304,0.001979827393061,0.0001161307821962,0.0001071869672562,0.0001111168202919,1,5,R BICEPS BRACHII,uni-articular,34,86,0.3953488372093023,52,10,1.349999205882824,81.49786382478598,-0.530440739974325,-0.7661552182959503,-0.3900167639052924,-0.6055174039046213,-0.291206539569844,-0.4729701809503187,-0.8757709246342088,-0.3666805059844013,-0.760117845296965,0.7762469636812609,1.9648594239541783,1.3588471388355907,7.877330633145085e-05,7.660173842139729e-05,7.787706591168193e-05,3.54761435186121e-05,3.449816178310744e-05,3.5072514989613703e-05,0.0204446233720475,0.0170562527293441,0.0191124296937084,168.75485008818342,133.2275132275132,150.99118165784833,268.6754850088183,202.0617283950617,234.62845385067604,1008.0881834215168,863.758377425044,920.0099941211053,5.343613603944128e-05,4.495613906575744e-05,5.060052734949684e-05,88.8183421516755,59.95238095238096,76.23574368018812,0.324818803678342,0.1427940680677672,0.2112579003819995,8.43352248807525e-13,2.5114308506225137e-13,5.125789862682415e-13,0.729480288830228,0.7063223795717107,0.7186110143383294,5.835626189300544e-07,4.391260011240045e-07,5.199837887029717e-07,6.022513454933285e-05,4.179573626063568e-05,5.381320019194718e-05,0.0085425965385832,0.0048320838827119,0.0068564982174241
91.46221715490944,78.73095038617124,84.03018705465855,85.71104387291983,72.37821482602119,77.45738779626829,0.0087630389623046,0.0030178007602721,0.0051538704221001,0.0002005653447461,0.0001178865688898,0.0001494300698708,1,5,R BICEPS BRACHII,uni-articular,35,86,0.4069767441860465,51,10,1.5739402506233944,82.84865714784873,-0.3507203440496014,-0.1210175529822929,-0.4113316091684672,-0.0976270559425895,0.4091261511707066,-0.1226850640519899,0.2920335466785074,0.0491870176721959,0.1078863323719098,2.663802385033205,2.3308787043811314,2.485884708317778,0.000154925580951,8.777744038837667e-05,0.0001121575897477,8.13390063611144e-05,4.6084899203111176e-05,5.888496173411386e-05,0.0415804247712061,0.0240953381812932,0.0319226742999883,205.7065052950076,158.089258698941,177.13615733736762,251.41906202723143,226.65809379727685,242.530509329299,1142.8139183055976,969.4871406959152,1076.7846696923853,8.457805955114325e-05,5.116875680917448e-05,6.624739124795082e-05,74.28290468986386,51.4266263237519,66.6641452344932,0.273721608981865,0.1028701869809784,0.1889604913130212,6.626288285750677e-13,2.936606882647297e-13,5.058410439077922e-13,0.7277468978900133,0.701760806548496,0.715283833686061,1.5790552199901018e-06,5.656629384705215e-07,9.71742358261889e-07,0.0001522884594899,5.5762813780494616e-05,9.71281470202098e-05,0.0183761913368898,0.0065381145854176,0.0119392556577607
83.53481936348629,77.04610536612414,80.39275807032782,77.91856677524432,67.55609756097562,73.78091417070523,0.0030638210178706,0.0022039738997744,0.002558703310526,0.0001275014618806,0.000108331012822,0.0001163420867962,1,5,R BICEPS BRACHII,uni-articular,36,86,0.4186046511627907,50,10,1.462763845433031,84.42339151565204,-0.9229870487750584,-0.6473429124806339,-0.8460334882822144,-0.7830022875120687,-0.543776412242975,-0.5993090134809987,-0.7154251608066505,-0.2385134349269313,-0.601812897911426,1.0304413058378248,2.003995716042952,1.512555626776961,8.261214396385661e-05,7.553646104355376e-05,7.991938336176114e-05,4.028900428420013e-05,3.689827128021093e-05,3.8995774586552175e-05,0.02172023732603,0.0183000944485749,0.0203633733614674,166.08957654723127,147.39512195121952,153.70662588384843,266.56351791530943,186.2910569105691,222.7186259191582,957.5781758957656,867.35667752443,911.972864419198,5.486236411749686e-05,4.4273146184626654e-05,4.999607467887644e-05,92.27198697068404,63.56514657980457,74.46441037048808,0.1895868379098796,0.1465885845798402,0.1656212156041794,1.01191728045452e-12,5.04341259965491e-13,6.80088868098118e-13,0.710070687505473,0.6839215150156567,0.6945891186600126,6.550092131632538e-07,4.489592314263017e-07,5.458677257369154e-07,6.260200917180975e-05,4.036936626021964e-05,5.2273959409195954e-05,0.0073745385507815,0.0042965734007736,0.0060785625601219
94.5338105620738,77.35762910338327,85.78364606053562,84.76026272577998,70.28899835796389,78.55829228243022,0.0062250388839149,0.0019814383047817,0.0034296121362148,0.0001833846437254,0.0001034103468719,0.0001309559189002,1,5,R BICEPS BRACHII,uni-articular,37,86,0.4302325581395348,49,10,1.450057970554127,85.88694947826501,-0.1289867205298936,-0.5500266364705131,-0.2017792225549518,-0.1812515364158466,-0.0037256354021494,0.0200379628426331,-0.1566122681510343,-0.3171832288431328,-0.3636458371153115,2.279723586318875,1.835666214441526,1.9424418409798847,0.0001426111410669,7.770117252776758e-05,0.0001003181580652,6.898346696564455e-05,3.7585396401438014e-05,4.852562213005196e-05,0.0381483525270331,0.0185221934098004,0.0271560525735676,204.66502463054184,132.3087027914614,170.20963327859877,274.95402298850576,208.79967159277504,236.36398467432957,1157.7011494252874,963.3727422003284,1070.873563218391,8.312519836160418e-05,4.301689307562211e-05,5.981617784606198e-05,80.6256157635468,70.28899835796389,73.7345374931582,0.2507052463192959,0.105868181234653,0.1580077532020892,7.931550671660913e-13,2.1060532846398214e-13,5.251299497749835e-13,0.7596245257298304,0.6892308055552328,0.7196215831976057,1.4343918973010284e-06,4.1328450223264525e-07,7.928162247515066e-07,0.0001432248855571,3.8413875918660045e-05,8.105078528636385e-05,0.0168262734024947,0.0043201641766163,0.0099805957820174
82.6856982024273,82.08472983521294,82.31246283787833,74.46950092421443,69.81515711645103,72.9180529882933,0.0021955654093201,0.0011942255161146,0.0016128805037911,0.0001225464042654,9.03617663568408e-05,0.0001041705476962,1,5,R BICEPS BRACHII,uni-articular,38,86,0.4418604651162791,48,10,1.2880580658482046,87.33780156599907,-0.9842838048527732,0.9266628883592294,-0.6166134024488771,-1.0863595225372624,-0.0973617933118131,-0.7111717239083514,-0.8689079161049043,-0.5954751931226829,-0.8604666527815666,0.919669773633762,1.389291460099482,1.1545128610258175,9.033398651266692e-05,6.195557803359725e-05,7.472948628117999e-05,3.881706648399746e-05,2.6622690799186747e-05,3.211171729794947e-05,0.0215514142512311,0.0142944639512597,0.0176195513085958,181.51940850277265,144.28465804066545,163.6777572396796,272.279112754159,211.77264325323475,235.82008626001232,1063.5175600739371,767.9667282809612,954.916204559458,5.454950889480536e-05,4.046740213047177e-05,4.634088670655016e-05,67.48798521256933,60.50646950092423,65.16081330868762,0.2146421095585578,0.1199207958496754,0.1821796831154499,5.199133124676596e-13,4.0523058720545773e-13,4.8101637419573e-13,0.7085575152781787,0.7005244331605275,0.7033016385638361,6.157638980992397e-07,3.373822373543077e-07,4.5329831557352563e-07,6.197244529254551e-05,3.419335698264731e-05,4.55130847158881e-05,0.0076174370058351,0.0042197259863669,0.0056249199644515
87.66245452605352,72.18866402317252,81.01951861899244,78.68750000000001,70.4046052631579,75.46637426900587,0.0138398179506209,0.0050775844537306,0.008766049466116,0.0001825119358407,0.0001105223757731,0.0001420976997261,1,5,R BICEPS BRACHII,uni-articular,39,86,0.4534883720930232,47,10,2.171910487111475,88.6266537490272,-0.6250193883976649,-2.164749279625094,-0.7711305858660994,-0.7153719588793918,0.0191195403272419,-0.3808032575654989,1.189462851474963,0.777352589034563,1.095707377016996,2.2602139868207627,2.078959356557433,2.270192833646792,0.0001355751326956,6.855150427957086e-05,9.950951977072255e-05,9.82085155031007e-05,4.965764249640081e-05,7.208314696655994e-05,0.0548480126858644,0.0299051659626311,0.0392046670739957,189.12609649122808,160.1359649122807,176.70175438596493,285.75986842105266,211.21381578947367,247.56652046783628,1137.517543859649,947.0109649122808,1018.7960526315788,8.290820203830824e-05,5.194255296972512e-05,6.232559532170057e-05,63.50219298245615,44.17543859649123,51.99817251461989,0.5228704312324245,0.1427583818348313,0.3386212531704419,1.2960206692266876e-12,3.7082229098456153e-13,7.205115641902777e-13,0.7374352211068801,0.7021708749567934,0.7245462448449503,1.3845315198871096e-06,5.351568707166571e-07,8.53425851205553e-07,0.0001434590945698,5.604644392431694e-05,8.529263591608296e-05,0.0181520758530822,0.0058916230791872,0.0104157017830799
86.28530169436199,80.02945629353779,83.48791571790802,84.09583736689255,74.34559535333979,80.8457566957083,0.0132000176145572,0.0055598139180184,0.0084061210394251,0.0001573386916429,0.0001020936492682,0.0001231943080602,1,5,R BICEPS BRACHII,uni-articular,40,86,0.4651162790697674,46,10,2.460175023426487,90.7993583533186,-0.7244339420293885,0.2846201053029237,-0.4761373744742471,-0.239690037870531,0.7979018371710205,0.3165885256575468,1.0763644534309318,0.9478282047538568,0.9972779054656568,1.697459918774737,1.7906237235215126,1.714123253741884,0.0001215297191044,7.277906708704732e-05,9.244754797212302e-05,9.971421750194014e-05,5.97146753780142e-05,7.585251553232968e-05,0.0557385267289147,0.0323674754085896,0.0413087758867604,170.62923523717328,165.7541142303969,168.1916747337851,265.69409486931266,227.91190706679572,241.7247499193288,1122.4966118102614,934.8044530493707,1010.3688286544048,7.273206951101201e-05,4.591570492277135e-05,5.552063243530313e-05,96.2836398838335,34.125847047434654,63.37657308809293,0.4396004331271943,0.1600154617605063,0.2814504881151261,8.045172433473516e-13,4.330630674041093e-13,6.234401158991235e-13,0.7489496169447892,0.7401157761030024,0.7449586065365309,1.0673594257301583e-06,4.3843833190233465e-07,6.633913992967415e-07,0.000110346117862,4.369757288048636e-05,6.721680454738867e-05,0.0137308430929012,0.0051001330851211,0.0081268662334476
81.90012396856022,80.87973502043106,81.322534722425,77.14104046242775,72.08849045691152,74.74356255244604,0.0471093694093117,0.0207504748714544,0.0298655299347505,0.0001776005517236,0.0001178583360454,0.0001386720358749,1,5,R BICEPS BRACHII,uni-articular,41,86,0.4767441860465116,45,10,4.119085812302458,93.260327493925,-1.0409932055868611,0.5502369728967023,-0.734917736039672,-0.8513884078712773,0.3518734800236863,-0.474509730160565,7.070567879914422,6.317963111472269,6.865773197127311,2.150418786412992,2.3299128959581306,2.169422162842907,0.0001320197881919,8.058637140844327e-05,9.984748543044276e-05,0.0001813043794947,0.000110734251419,0.0001371431012176,0.0984254396269503,0.057953122410601,0.0730100491454953,163.83747831116253,149.1878612716763,154.8279953997934,256.3146327356854,235.92596876807403,244.37480551088703,1120.6483516483515,868.928323699422,1003.4887356229614,7.952514475412746e-05,5.1306201396278e-05,6.120499847675553e-05,91.0208212839792,58.25332562174668,75.47172912271787,0.3125217916741659,0.2571172305138945,0.2834714353386857,6.078002603317237e-13,5.138021744136175e-13,5.697316905189648e-13,0.7717433757442728,0.7500492869262445,0.759820311204641,1.2906303200843637e-06,5.614069349926435e-07,8.138950691398424e-07,0.0001319349443518,5.47151715898113e-05,8.15508619983832e-05,0.0165584412754297,0.0064894697398728,0.0099666240053492
86.38428164631637,76.4207608475923,81.07134468859613,73.94435857805256,64.21483771251933,68.10664605873262,0.0076865570281905,0.0018978237297726,0.0045357121028695,0.000191832668201,9.534672939877256e-05,0.0001420077732171,1,5,R BICEPS BRACHII,uni-articular,42,86,0.4883720930232558,44,10,1.540587329066284,97.3802074234074,-0.7172887308984297,-0.8426930334771524,-0.764936955711159,-1.1325476027325825,-1.20404552218448,-1.334930250865306,0.1017423332966885,-0.3467422815626411,-0.0611611564755763,2.4685812521484185,1.5598204805303335,2.2675475202029194,0.0001499057280508,7.162856572811478e-05,0.0001079542945933,7.703654173861518e-05,3.680991423835605e-05,5.547770341692888e-05,0.04193633535274,0.0215035003640788,0.0298482289363836,184.86089644513137,130.3755795981453,164.10458526532716,266.58887171561054,231.5625965996909,247.7784647089129,1142.2457496136012,1007.9783616692426,1061.8150437918598,8.25878357683751e-05,4.482518336407872e-05,6.181585332491837e-05,79.7820710973725,58.37712519319938,67.45801133436373,0.305574438830761,0.1194678220908388,0.221155388459352,7.684925194562437e-13,3.174027535500108e-13,5.660474961668978e-13,0.7245929922657741,0.7107204324311652,0.7178376320975736,1.476481153765311e-06,3.916354870242784e-07,8.675020355259821e-07,0.0001437932432028,4.222317977976585e-05,8.538497816083924e-05,0.0170493779883315,0.0057192022465473,0.0103427898559648
82.56870676309437,79.63625879601501,80.85159257239106,75.04715302491103,72.80693950177935,74.25598229279258,0.014692505874285,0.0068136491485217,0.0104777175838883,0.0001522645323256,0.000104042332506,0.0001272861662388,1,5,R BICEPS BRACHII,uni-articular,43,86,0.5,43,10,2.6785572479074915,98.9215888696536,-0.9927292376706623,0.1617899269926731,-0.7911990925845044,-1.0355530283610237,0.4938467873713259,-0.5377204186322007,1.3401936853960912,1.391078459580752,1.5637965186625706,1.5840258387139092,1.8572856106550035,1.834490958047351,0.000113634910903,7.200026705936669e-05,9.229117056499418e-05,0.0001016305875113,6.427982539692466e-05,8.245514878659425e-05,0.0555796953669039,0.0317176900332404,0.0429637566434979,166.59946714031972,144.49377224199287,154.1025507312335,245.98579040852576,204.97953736654804,220.88850190367228,1100.227353463588,915.1272241992882,1002.9630917239244,6.864075909094308e-05,4.353786893798987e-05,5.526728821011093e-05,62.72597864768683,50.40480427046263,55.97284238183431,0.3503353068640044,0.2337935849847305,0.276857023123821,3.5808936370559174e-13,2.669375502717664e-13,3.1016996547353044e-13,0.7568070659030912,0.7416604037279972,0.7498035995287416,9.56829539441462e-07,4.294948827086533e-07,6.725581315368813e-07,9.970842185231564e-05,4.347469579041004e-05,6.892262151284114e-05,0.0136880097232929,0.0057107191989179,0.0092814229741795
84.17387229755471,72.80221699388156,77.7741112857078,79.86194029850748,68.68983557548582,72.4138704831597,0.0233177121125477,0.0123398428420313,0.0171903404103682,0.0001614364796642,0.0001175142385479,0.0001375401279187,1,5,R BICEPS BRACHII,uni-articular,44,86,0.5116279069767442,42,10,3.1883804774232374,101.60094023474105,-0.8768547962570711,-1.9730826966234831,-1.1589827397763808,-0.6120758847986363,-0.3197375096436006,-0.7765347541661801,2.864883425868186,3.3446738788827792,3.399494586771006,1.7890669782737445,2.3181417737477323,2.136125514662813,0.0001208962203829,8.662768217423294e-05,0.0001023188849931,0.0001286742933384,9.206341441550728e-05,0.0001088032292304,0.0698359179091194,0.0454124465046605,0.0548317715031346,158.78432835820897,133.6158445440957,146.0828179729157,254.61865671641792,192.89611360239164,226.01638332998684,1096.4574626865672,979.5358744394618,1026.664694836728,7.442258440723634e-05,4.933658651366864e-05,5.900050361593912e-05,86.5680119581465,39.46119402985075,59.57425949475345,0.4168504412287519,0.3094764699261386,0.3769309662086086,4.731371494635642e-13,2.663359135330176e-13,3.657871457165762e-13,0.7508622613460236,0.7312800081635316,0.7442040930650377,1.0930842735758176e-06,5.262414841328159e-07,7.554880501897658e-07,0.0001173027350271,5.12956358783696e-05,7.59580731106349e-05,0.016346808786231,0.006719166940569,0.0101007735613326
77.4574183337088,69.85295704390978,74.71941568707668,71.00275103163686,65.80742778541953,68.05469609402566,0.0035917564020047,0.0029760730137932,0.0031942793238186,0.0001166464486545,0.0001059852666317,0.0001098298928177,1,5,R BICEPS BRACHII,uni-articular,45,86,0.5232558139534884,41,10,1.7327636866095872,104.79011482934422,-1.361705320787178,-2.89439610227996,-1.5240433148599557,-1.3912721299965236,-0.8893324864948664,-1.3416651277808282,-0.6221012863872,0.0344356103021216,-0.4280021997838861,0.787774814239003,1.9237508282367903,1.3209903757420898,8.505794438056649e-05,7.39820725129756e-05,7.787287147420183e-05,4.911606478528343e-05,4.272038659009791e-05,4.5006589854459184e-05,0.0241191588480392,0.0188161835789673,0.0213697631325578,159.3232462173315,129.52674897119343,141.8867246685271,245.9119669876204,184.7914951989026,215.1478298989464,954.2077028885832,825.517146776406,895.1476229740701,4.877048060733457e-05,4.036364967652479e-05,4.49491225115393e-05,81.17009602194788,38.0990371389271,58.228638151286624,0.512861788165399,0.2413184945257172,0.3552658433194548,5.696098072366101e-13,2.980773512368407e-13,4.0136144875861723e-13,0.7159459813731233,0.684629312733286,0.7024744408311342,5.263820493915337e-07,3.911770081571441e-07,4.519799681363012e-07,5.096227435057391e-05,3.429246869514053e-05,4.314545283724208e-05,0.0065981910741621,0.004032217689679,0.0055917053155287
87.32177024709166,74.04037672054359,80.00119115064619,80.06359300476947,60.04769475357711,69.38844727080021,0.0062745579632284,0.0027675880903453,0.0040997707458709,0.0001782091595677,0.0001183936784988,0.0001416467317734,1,5,R BICEPS BRACHII,uni-articular,46,86,0.5348837209302325,40,10,1.497705001349999,106.52367263313374,-0.6496128646937839,-1.586296460798931,-0.8928288694477662,-0.5943398339230868,-2.027518073644669,-1.168755481697751,-0.1478587114126406,-0.0392670526935268,-0.1803778512813619,2.1640243645182635,2.348226256238644,2.2569269835569745,0.000144528348431,9.067629788561362e-05,0.0001099372586255,7.22067761422664e-05,4.530213770456788e-05,5.492496876526387e-05,0.0365186323090748,0.0238059618674525,0.0288127587774899,168.1335453100159,158.12559618441972,161.46157922628512,266.2114467408585,222.1764705882353,242.85956544780075,1156.918918918919,1050.8346581875994,1093.5352411234765,7.398844317683519e-05,5.141329196460815e-05,6.215332850039504e-05,80.06359300476947,38.030206677265504,56.71171171171171,0.5602546836710042,0.1253339709889933,0.3615620917506754,3.6913272467672795e-13,2.079276681211789e-13,2.9747435785225373e-13,0.7267509344026981,0.7068575211401847,0.7174158147757415,1.1742226800365063e-06,5.501125397664218e-07,8.144076977843657e-07,0.0001169932733871,5.6533650845090505e-05,8.418373976098682e-05,0.0160410029378027,0.0077304603210334,0.0117348755126238
87.13888131509088,74.11603546519537,81.25763218970275,80.68107302533534,69.21693907875186,74.35795634468083,0.0027409633964173,0.0022337497332659,0.0025283390479939,0.0001100566407931,9.963072887168544e-05,0.0001058452661171,1,5,R BICEPS BRACHII,uni-articular,47,86,0.5465116279069767,39,10,1.599352000381174,108.02217175166366,-0.6628153365768121,-1.562661577172112,-0.7426741082067009,-0.5400303368555757,-0.215576152331233,-0.5245003386587419,-0.7724971529961528,-0.2279872146854694,-0.6101165996850126,0.6404580380406544,1.7063704604393153,1.2037770346333987,8.26979143053367e-05,7.375750852552711e-05,7.843920462134412e-05,4.420627190428244e-05,3.930999858667887e-05,4.184895809673719e-05,0.0229833603893836,0.0210630719994307,0.022025245340982,166.99105812220566,144.04606240713224,156.84098751872116,264.55886736214603,194.555720653789,228.71579163372695,1008.3224368499256,962.5439642324887,984.0578018511178,4.852052243287528e-05,4.422744377714015e-05,4.672474123534677e-05,69.21693907875186,46.90760059612519,59.97295882853577,0.2944632032490097,0.2465118452466037,0.2756587886002808,4.599732425421541e-13,2.038429313091762e-13,3.166619959869766e-13,0.7446030950369878,0.6962320707763162,0.7161944927501541,4.7840381905371e-07,4.323161437867262e-07,4.530811836932711e-07,4.962188149351659e-05,4.086091350523599e-05,4.6117944983387465e-05,0.0069607548007335,0.0049464921717456,0.0062013913192448
88.2361015282385,75.92485697711433,80.51281778208688,81.41798107255522,67.51735015772871,72.81282860147215,0.0073715844187726,0.0034981059408941,0.0051485873735899,0.0001917012245026,0.0001319921481772,0.0001582382708587,1,5,R BICEPS BRACHII,uni-articular,48,86,0.5581395348837209,38,10,1.5096167590489813,109.62231786922476,-0.5836086899246792,-0.9976074498183308,-0.8316853917194097,-0.4752167330197172,-0.5514333185043052,-0.7248131825262575,0.0460641856857058,0.218982369187353,0.1064415793752642,2.4656427959278697,2.8134119946519696,2.744990201637755,0.0001470356158263,9.64876854434769e-05,0.0001187751976626,7.404335221119688e-05,4.858871530672307e-05,5.981213289761621e-05,0.038794752810829,0.0237907793501576,0.0313097635684588,162.8359621451104,144.96372239747635,154.89274447949526,244.2539432176656,216.45268138801265,231.01524710830708,1157.7239747634069,1006.8028391167192,1077.6298633017875,8.049718710407386e-05,5.4825147006241074e-05,6.913428366417419e-05,97.30441640378552,65.53154574132493,76.78443743427972,0.3297344019652852,0.1947457980402887,0.2707278836689066,4.78587144649542e-13,2.2039033301207994e-13,3.6077988315392893e-13,0.7331993023294777,0.689533676771316,0.7060338776732434,1.4190476951031828e-06,6.607519063111029e-07,1.028108102295825e-06,0.0001364440509838,6.274060567944465e-05,0.0001030395433876,0.0172481626740079,0.0077114987880427,0.0134846754456248
79.38211484073418,73.79075874937801,76.50302453906569,68.63373083475298,61.12691652470188,64.66511374566862,0.0187952263804621,0.012360911892262,0.0145753186932419,0.000164965539805,0.0001341593934917,0.0001447881376224,1,5,R BICEPS BRACHII,uni-articular,49,86,0.5697674418604651,37,10,2.797674824897157,111.13272874545368,-1.2227644278672236,-1.6642741185940055,-1.310887780304222,-1.5996356254139692,-1.8142521707909105,-1.7810960309581518,2.0654373133157224,3.352122115825359,2.6843657260738416,1.867959986064932,2.88755060258054,2.349335809531295,0.0001226859381913,9.904544569832068e-05,0.0001083424115672,0.000114597826301,9.23585013898558e-05,0.0001010927575896,0.059921655787029,0.0431257244468755,0.0505779123149708,175.5748299319728,137.26746166950596,152.89632320844294,249.44472789115648,208.04599659284497,228.27998595804024,1094.1309523809523,952.2930153321976,1028.1697155295965,6.975292304265069e-05,5.412794770717161e-05,6.05767990190614e-05,64.34412265758093,47.10544217687075,57.52549378638452,0.4114580825471366,0.1534452169259661,0.3124689849288525,4.422813791244181e-13,2.83836306328959e-13,3.5222172509161997e-13,0.7298337730433112,0.7184294050538359,0.7254704881294919,1.037441112885037e-06,6.617840456949343e-07,8.077288765940178e-07,0.0001029507252869,6.283884709916232e-05,7.906768633941243e-05,0.0139461322220882,0.0080039570477073,0.0104953079357962
82.5094164490502,75.49833652293019,78.50442619025621,75.62521150592217,64.97377326565143,68.84211654547948,0.0191253130919996,0.0093216248941831,0.0146206229914671,0.0001652683802224,0.0001155395183278,0.0001431423679846,1,5,R BICEPS BRACHII,uni-articular,50,86,0.5813953488372093,36,10,2.8167336372155205,113.93119768753076,-0.9970093146307084,-1.1308473197830995,-1.0717042629402531,-0.9847107916347976,-1.0540716426010004,-1.2395826749587664,2.123787201845319,2.2776868921080373,2.696755072962356,1.874730058109413,2.2505891957387614,2.3009232046773183,0.0001196264788739,8.212072038431198e-05,0.000102799423898,0.000112500199354,7.709824582546208e-05,9.657559176600527e-05,0.0572428290965418,0.0398158821472366,0.0483637962381717,158.43834459459458,146.98984771573603,153.29134893141872,255.2027027027027,198.11675126903555,224.2463605737717,1055.9011824324325,946.9128595600675,993.538690816451,7.049504089130118e-05,5.1568699727819264e-05,6.106498460736782e-05,78.82064297800338,44.66047297297297,63.52839228822731,0.4112298716070671,0.1780949210487797,0.297293237179444,4.3095508990430123e-13,2.7752134135190605e-13,3.3262320539120546e-13,0.7408966657444132,0.7243985595509806,0.7309412876255269,1.057396368412177e-06,5.505036277209426e-07,8.136327010400837e-07,0.0001077668855436,5.6171918913387854e-05,8.079526727937436e-05,0.0151286674449051,0.0075234533073799,0.0108029017039598
76.8346569888044,64.36279907187183,70.80693623190238,73.22514071294559,54.32833020637898,63.77673545966229,0.0032090539196284,0.0021417823644919,0.0025499744385629,0.0001504714432873,0.0001228607080562,0.0001335338378016,1,5,R BICEPS BRACHII,uni-articular,51,86,0.5930232558139535,35,10,1.2689992535298416,116.7487254419262,-1.4066615084360958,-4.609455549263853,-1.9916159268572515,-1.1958052940504866,-3.157726411303359,-1.8962668197050627,-0.6897521381365505,-0.260499109911523,-0.6041999787609916,1.543940892065378,2.501037454287621,2.0182749139994383,0.0001045785685807,8.732623380148576e-05,9.322455271280092e-05,4.427353221092685e-05,3.696972407958055e-05,3.946678840025648e-05,0.0201681823700827,0.0152321561971605,0.0178817071725954,137.0018761726079,118.10506566604128,129.91557223264542,243.29643527204504,186.6060037523452,211.0143839899937,933.030018761726,911.7711069418386,922.0068792995622,5.8540743971142665e-05,4.537383422463959e-05,5.2032673280384765e-05,73.22514071294559,44.87992495309568,59.05253283302064,0.7434052377505151,0.4182483713312466,0.5373215013525852,7.689886961329371e-13,3.3929974855458426e-13,5.579421636352192e-13,0.6808907366110327,0.6554628777512719,0.6668631756583999,8.045351243537322e-07,5.208778821481186e-07,6.348930193525163e-07,7.141875319772149e-05,4.3026919938336457e-05,5.7262669742654864e-05,0.0084054364683098,0.0048928062291443,0.0070024607185043
84.3523424549774,78.38173352277228,80.7300994092579,81.15505226480836,67.87652173913044,74.53549563197497,0.0056108091919916,0.0010973285953146,0.0034322079440117,0.0001846985020274,8.157192308188894e-05,0.000138113694232,1,5,R BICEPS BRACHII,uni-articular,52,86,0.6046511627906976,34,10,1.3674697838412726,118.018518812636,-0.8639713089429087,-0.2301087091327882,-0.8057184980604498,-0.4983422283194783,-0.4804571265514505,-0.5014838601232855,-0.2651905077546628,-0.6297297616590136,-0.3629359626770947,2.3090952119401047,1.0886024979527558,2.1529977661901967,0.0001409549035736,6.107903209210266e-05,0.0001061988971606,6.4263792415639e-05,2.7895507111166827e-05,4.843409582809874e-05,0.0357178504329297,0.0138158717665729,0.0256531920588587,166.69686411149826,148.8904347826087,160.7613876685351,267.12695652173915,221.53135888501745,239.6543978185124,1133.9773519163764,906.48,1047.1780023228805,8.467867110839961e-05,3.4928062696276375e-05,6.117875080471066e-05,85.5418118466899,41.67421602787456,61.38157450891279,0.3037240172009413,0.1786130274443166,0.256275204120108,4.1806494464375054e-13,2.537349006180647e-13,3.256039154179178e-13,0.7354256098739237,0.6801128113057546,0.7102550121834851,1.4364776141886264e-06,2.601452326498981e-07,8.540066183840017e-07,0.0001522720026401,2.571966222067741e-05,8.79613969864417e-05,0.0208799677583686,0.0034667297371849,0.0117215583675866
83.50407413377854,74.8758913763133,78.57382886444502,76.30303030303031,67.05417814508723,71.67860422405877,0.0164476898199092,0.0093934755532796,0.0138641039927847,0.0001667205277854,0.0001259357146085,0.0001519182438978,1,5,R BICEPS BRACHII,uni-articular,53,86,0.6162790697674418,33,10,2.5935867096548577,119.38678271365724,-0.9252064998173556,-1.3252917117972498,-1.063410087846978,-0.9250942911039564,-0.6429611213113504,-0.8718558536724778,1.6504600002655168,2.3030872175887573,2.489870148802685,1.9071931741883923,2.606229378633704,2.5590778109291583,0.0001250948676643,8.896793766551987e-05,0.0001117401876546,0.0001082035829121,7.69547927861407e-05,9.665215596178297e-05,0.0577186660639187,0.0371486040232409,0.0483618505219056,159.54269972451792,136.42056932966022,148.36700336700335,233.53351698806244,209.2552800734619,223.5139271502908,1063.6179981634527,981.534435261708,1034.3299663299665,7.517079844384576e-05,5.172114862589808e-05,6.517767735218e-05,55.4931129476584,38.15151515151516,46.24426078971533,0.3960362689647415,0.1692581313158866,0.3077395887148388,4.0475954009638143e-13,2.5395692334349333e-13,3.45421721775286e-13,0.745551241812059,0.733119370075187,0.7395425958900218,1.1581286696593596e-06,5.930790121546203e-07,9.261470206062524e-07,0.0001198807170424,5.6122792623424674e-05,9.196019759027122e-05,0.016339346820811,0.0071507332855663,0.0120852157727165
84.34001307118814,68.62331992712167,75.30095402871915,83.78237410071942,65.43189964157708,71.62717997644896,0.002971004013822,0.0014655719222707,0.0022523465144108,0.0001381733925918,9.777281315205242e-05,0.0001196124400497,1,5,R BICEPS BRACHII,uni-articular,54,86,0.627906976744186,32,10,1.3253815733049663,121.98116354049203,-0.8648613482746061,-3.2785199770847244,-1.454544828160239,-0.267260213047051,-0.9635409122200916,-0.8785225757786242,-0.731832552108951,-0.4995500183078555,-0.6855921587633812,1.269014942769124,1.6428136105595776,1.6087576201511622,0.0001011032613466,6.794390800996913e-05,8.653260920165001e-05,4.480986483832559e-05,3.000541132132076e-05,3.826809602092815e-05,0.0195402042477662,0.0166007230595918,0.0182587740249745,172.0935251798561,126.35125448028674,147.03375149342892,273.9910071942446,196.2956989247312,231.4870555168768,983.7347670250896,955.5719424460432,971.7527161066846,5.205363785950079e-05,4.47331342590654e-05,4.845339431015593e-05,86.04676258992805,40.612903225806456,67.1281619865398,0.4867155654960375,0.2114096868481177,0.368958198089461,6.731194576955137e-13,2.2059236599270357e-13,4.4759790616546913e-13,0.7071088382592117,0.6900438062118018,0.6976189586903142,6.547968260469187e-07,3.998445832289934e-07,5.340488215199654e-07,5.642385844355494e-05,4.245127729029111e-05,4.990471746758331e-05,0.0064253330998294,0.0060383588208059,0.0062766275520079
76.98163809276978,70.91896122933937,74.37317757998653,68.59226713532513,61.845614035087735,64.13072899002044,0.0089275838349394,0.0020018589069012,0.0049533928747461,0.0002353438215216,0.0001113173863882,0.0001676085327763,1,5,R BICEPS BRACHII,uni-articular,55,86,0.6395348837209303,31,10,1.3555580261423188,123.30733923097692,-1.396051167661449,-2.561389190993081,-1.5654215400902596,-1.603282500758084,-1.6722297639676615,-1.850374529511961,0.3211203733842429,-0.3099642283931694,0.0530618239956725,3.4412837907693947,2.1061556226665417,3.020629499611168,0.0001849842832979,8.113305981809347e-05,0.0001297297874629,8.360290484233995e-05,3.673220341248076e-05,5.86523379028322e-05,0.040429860191647,0.0183677478919862,0.0280894659381804,143.5701754385965,132.7592267135325,139.31308132663233,229.7122807017544,196.9261862917399,216.7054995426469,1163.8558875219685,978.4859649122808,1061.50059404516,9.614169212618578e-05,4.652189995495769e-05,6.782941574121026e-05,59.74165202108963,35.402460456942,51.59365152776493,0.4988192159428074,0.1970357152077624,0.3215911178367976,5.402306624750216e-13,3.012767628981662e-13,4.3248907526020084e-13,0.683431207367785,0.6658400739411404,0.6763158877552072,2.074132875987504e-06,4.7431941484722053e-07,1.136489743750758e-06,0.0001943898446116,4.6655961806467416e-05,0.0001062130176754,0.0240284345637013,0.0063516943489493,0.0132459872028099
84.9281645320658,74.4878100508738,79.71118686286314,80.17728055077453,64.78559176672385,71.43512840875879,0.0029300709538911,0.0015306280179192,0.0020829627049877,0.0001318316498288,9.52839125353136e-05,0.0001099139397718,1,5,R BICEPS BRACHII,uni-articular,56,86,0.6511627906976745,30,10,1.3849403617997496,124.6636913742992,-0.8224035951440553,-1.4465236593628643,-0.927486703152121,-0.5843406222227376,-1.0912583435580585,-0.9034204496679012,-0.7390683462220169,-0.4765516766815225,-0.7319134760434691,1.1272437228861274,1.557671598361682,1.3234627338931648,9.677992620773346e-05,6.92182123037087e-05,7.892158034656021e-05,4.466174513637263e-05,3.1942638084555e-05,3.6457995167887455e-05,0.0223531811557762,0.0157559621887289,0.0184389937537893,153.85370051635113,136.04974271012006,142.86282301467568,255.70051635111875,223.1962134251291,238.09479328733707,964.2943201376936,788.2246998284734,893.3250433736908,5.788909482617867e-05,4.189711646303714e-05,4.814696288032359e-05,80.17728055077453,41.03087478559177,62.07225372944854,0.3659216842021748,0.2586963659903067,0.3293068592004004,4.219949727206784e-13,1.8000227045929905e-13,3.009385703962078e-13,0.7169118968420418,0.7107345135175648,0.7136497761276797,6.919584409024504e-07,3.8509611046072906e-07,4.896473923726858e-07,7.062488508724276e-05,3.710742262448036e-05,5.032576907364891e-05,0.0096392169745307,0.0046794837802075,0.0069944306584439
78.036661308618,72.63210444459577,75.33677086852714,70.07001795332137,63.17562724014338,65.5115645558108,0.0063587426454828,0.0026743033886256,0.004145389176258,0.0002030852593826,0.0001317018460083,0.0001610559738645,1,5,R BICEPS BRACHII,uni-articular,57,86,0.6627906976744186,29,10,1.3269698076648098,126.0494258532789,-1.3198906576141891,-2.026223815000958,-1.4502644291103823,-1.473309220581453,-1.4094047593460477,-1.6713607875656291,-0.1329772676775548,-0.0722446456042782,-0.1679025988060678,2.7201356967693635,2.8034811397820816,2.8278768578773543,0.0001627263493965,0.000100912643064,0.000124350836151,7.199251518178825e-05,4.472538111973994e-05,5.5041344943456445e-05,0.0364180397541943,0.0210169753059875,0.0265201130880066,153.70197486535008,133.35906642728904,144.57291579527637,270.752688172043,210.2100538599641,237.17190144334407,1145.983842010772,1014.8850987432676,1066.251415137846,8.667009319267742e-05,5.261247506461191e-05,6.634427867922155e-05,70.07001795332137,40.612903225806456,54.22345128472424,0.50390123297442,0.3080756261894374,0.4132431815423451,4.019626535376225e-13,3.2299811510367417e-13,3.578872639092838e-13,0.7142886837578802,0.6790406514064994,0.701856755694252,1.599409010743673e-06,6.238366768129772e-07,1.0165557222891085e-06,0.000157487853496,6.072386546936878e-05,9.961927535574393e-05,0.02021230586907,0.0084795880327936,0.0131340302598802
82.36618701929281,66.500354306513,74.1604590546359,72.35632183908046,57.66412213740459,62.63516714924981,0.002094916217889,0.0019926665363705,0.0020530969269987,0.0001241393950931,0.0001209811662351,0.0001227327193451,1,5,R BICEPS BRACHII,uni-articular,58,86,0.6744186046511628,28,10,1.244381620951998,127.37718977812364,-1.007348827790456,-3.941708953028776,-1.5908431065567294,-1.2722209099584076,-2.4985378210277687,-2.0442615701280213,-0.8866998140981472,-0.3132138743443266,-0.7400808574641343,0.9552814755502714,2.4367408039584086,1.7005449791416596,9.055100548950433e-05,7.696792094958516e-05,8.548812879171731e-05,3.7543784642987495e-05,3.191203712127359e-05,3.54917396366697e-05,0.0179873482322234,0.0156235392192716,0.0170495569774857,168.83141762452107,117.73091603053436,145.36624404082946,270.13026819923374,221.04580152671755,242.51335146676027,943.044061302682,896.1965648854962,925.8203109005292,5.379825597613334e-05,4.511780355195501e-05,5.0132776175312953e-05,84.09351145038168,53.06130268199234,65.01329053454613,0.5859695881874145,0.174622576516138,0.4344456115886552,7.531995069294794e-13,3.249501107628261e-13,4.814715916919268e-13,0.7143676169531996,0.6655023671777526,0.6850888789575795,6.023412185734946e-07,5.017529492659062e-07,5.56687008783426e-07,6.0600517093501856e-05,4.3116902662527934e-05,5.3212517949504126e-05,0.0077942311611553,0.0049892912918479,0.0068096623124386
75.93060230522607,68.08904630761587,73.07692758456275,69.05907172995781,58.43459915611815,64.58560959360427,0.0147045969938407,0.0083988662028634,0.0106377260146004,0.000181029177901,0.0001364856637838,0.0001526424978736,1,5,R BICEPS BRACHII,uni-articular,59,86,0.686046511627907,27,10,2.2592633769039026,128.62236551625557,-1.4719238313666705,-3.445420642434352,-1.720333790264562,-1.5622254269760507,-2.346283222927169,-1.7914030770061455,1.3423310494692724,1.951477343101352,1.6075539551716576,2.227066568240004,2.9671292455603724,2.580382749809208,0.0001429184702972,9.765815819931056e-05,0.0001138430946514,0.0001076145431626,7.368963486048057e-05,8.577312086447063e-05,0.0554938112826931,0.0336561918310821,0.0418745946881878,175.30379746835442,131.47784810126583,151.73703975127694,251.8,191.2405063291139,229.13445850914204,1148.7710970464136,976.123417721519,1050.6578207121177,7.529324270955251e-05,5.2542023859509216e-05,6.142208692382649e-05,66.26315789473685,37.18565400843882,50.41964616181806,0.516356864342997,0.32812957659821,0.4385312390973272,5.76968269305522e-13,3.5586749923833417e-13,4.447520949046345e-13,0.7200229188379531,0.7041716999405667,0.710125273123411,1.2306047563945893e-06,6.674556719241054e-07,8.682291804328907e-07,0.0001189157369811,5.788089883248919e-05,8.153745059199642e-05,0.0154132755233109,0.0068757755146234,0.0103675567837281
80.34560560444572,68.9507413677883,74.4658351706634,73.18534119629318,59.4468802698145,66.503320589883,0.0164109041658451,0.0106786095546636,0.0142791658661159,0.0001527654445454,0.0001232342886125,0.0001419374679746,1,5,R BICEPS BRACHII,uni-articular,60,86,0.6976744186046512,26,10,2.8254689261947306,130.8824230103394,-1.1532115053458931,-3.1762374493650483,-1.5543482163346904,-1.1993057987808933,-2.1462455185086733,-1.5427879414168562,1.6439573488739088,2.7574020747103862,2.603376940218702,1.595223854639935,2.5138171531098457,2.265479393627953,0.0001108924290809,8.846165332146522e-05,0.0001014448521095,0.0001044626059491,8.333242322419203e-05,9.559061802483644e-05,0.0525140068932224,0.040245172880046,0.0464946935507951,177.12973883740523,130.570826306914,151.39822098402547,266.2249368155013,202.75632377740305,237.00499580190683,1009.535413153457,957.5193929173691,991.206137266518,6.693553278219637e-05,4.959531726210693e-05,5.797032254212112e-05,65.76074136478518,36.09274873524452,51.64368725650231,0.6554091819076754,0.2650314012049081,0.4022695161012008,5.935182174300166e-13,2.961565581961724e-13,4.525858784087525e-13,0.7545028621513543,0.7054920501781418,0.7221481958227282,9.358218908445432e-07,5.62561915144283e-07,7.567811063953069e-07,9.516712493647269e-05,5.139801942876676e-05,7.184745745610788e-05,0.0128504309494552,0.0062179509358936,0.0091348768218722
81.3604990356832,60.5907381361373,70.92914207996877,75.81569343065695,52.64909090909091,63.49860207918604,0.0029239608361065,0.0012456204866714,0.0022438551747619,0.0001397161858821,9.109475792958297e-05,0.0001204836447647,1,5,R BICEPS BRACHII,uni-articular,61,86,0.7093023255813954,25,10,1.3063227609866033,133.70868605371408,-1.0799479029857144,-5.787802106025863,-1.97701134982716,-0.9679572495148157,-3.4895622715736856,-1.932324478149526,-0.7401484402675292,-0.5773062716871529,-0.6879142817534601,1.3035044663861728,1.414366136447604,1.6343853195865856,0.0001011416986491,6.752592531748813e-05,8.660498354236528e-05,4.4023551119745165e-05,2.939174509450635e-05,3.774447646199877e-05,0.0204101872869916,0.0155653836475477,0.0172106086385386,165.4160583941606,119.03272727272729,144.59424242424242,261.9087591240876,187.70545454545456,218.02894713558945,990.198905109489,888.1672727272727,929.3848330015484,5.4613410195334826e-05,4.0925931198170106e-05,4.6286638286040914e-05,62.03102189781023,43.65145985401461,54.30325149303252,0.7657717204434991,0.3107023533290019,0.5175584075687248,9.92819738190132e-13,2.553507399092535e-13,6.084165262610409e-13,0.7464933660230055,0.6237213497564337,0.6778294277801784,6.897085706954276e-07,3.374723760078475e-07,5.13448760595298e-07,6.246622070107067e-05,3.541679270167376e-05,4.55951532351072e-05,0.0075551502425348,0.0041057880979487,0.0055572014354995
78.78590816901549,68.78511437392723,74.58673930467178,70.28899835796389,62.01970443349754,64.776135741653,0.0059677312241999,0.0031599189896788,0.0044929179607071,0.0001797789104674,0.0001305906387779,0.0001548178709891,1,5,R BICEPS BRACHII,uni-articular,62,86,0.7209302325581395,24,10,1.4500579705541838,135.0158029318806,-1.2658036743307892,-3.2279773340721407,-1.5398992045539874,-1.4540491388821668,-1.637827616986931,-1.7667029609707507,-0.202096902149921,0.0994280221260246,-0.0728640520686351,2.1991165321257795,2.765468203900176,2.6443743781814626,0.0001407787813237,8.832988876218096e-05,0.0001135260486331,6.809712297550343e-05,4.272668963952995e-05,5.491450644765436e-05,0.034500452094395,0.022451238181361,0.0271645088453585,157.11658456486043,134.376026272578,146.09085933223864,258.41543513957305,200.53037766830872,230.8511220580186,1161.8357963875203,975.776683087028,1056.4022988505749,7.555268248821453e-05,5.631685154427389e-05,6.307656835941393e-05,70.28899835796389,39.27914614121511,57.88505747126438,0.439305964444038,0.2853996995749553,0.3788806870609782,6.919743135702069e-13,2.997263554732266e-13,4.581129739832659e-13,0.7199787651134133,0.6669977273119422,0.6991111335938562,1.2259367294701585e-06,6.712586714940056e-07,9.013896559614076e-07,0.000123076335886,6.682931342480603e-05,8.642169994870499e-05,0.0165067712863546,0.0079211858331024,0.0111446352910352
78.29739521430665,69.33893754666613,72.9846954379873,70.10450038138825,64.34248665141114,67.8461501491445,0.0363413658372008,0.013971875655823,0.0232632846999089,0.0002057942777373,0.0001275293485502,0.0001614176008822,1,5,R BICEPS BRACHII,uni-articular,63,86,0.7325581395348837,23,10,3.123262868668917,136.46665501961468,-1.301068676310302,-3.054969622963991,-1.7313562700445824,-1.4702763721270808,-1.1788207102603154,-1.3687013592379316,5.16709286514524,3.9216228614924287,5.060260041380336,2.780696468657264,2.6607454969530853,2.838514619997263,0.0001445919852878,8.92661652019707e-05,0.0001138650324421,0.0001506788599664,9.295309180284636e-05,0.0001186062389675,0.0728254901927886,0.0478249764065907,0.0567650379332588,149.81235697940502,141.16933638443936,146.89328803185057,251.41615853658536,200.71014492753625,227.2155056805145,1092.028963414634,955.5339435545384,1015.4373178328464,8.082642303293064e-05,5.513618604316521e-05,6.453638811253772e-05,87.3905415713196,43.215102974828376,72.64319249099242,0.5958007937167427,0.3657556749802868,0.4785751027479708,6.241599400494708e-13,3.512691189524168e-13,4.905311521472866e-13,0.7418514389923428,0.7178905874196033,0.7264230239345734,1.505674968255329e-06,6.36497412965299e-07,9.759746312094234e-07,0.0001367688909472,6.396484261547776e-05,9.007375714887032e-05,0.0168554951053198,0.0082235627960964,0.0111892494716022
72.81178311528787,59.53655258185576,67.11609986550663,62.063380281690144,53.103690685413,58.33796731767288,0.0029725185824034,0.0014899736878434,0.002365251380496,0.0001362845079824,9.618724632654298e-05,0.0001202093899628,1,5,R BICEPS BRACHII,uni-articular,64,86,0.7441860465116279,22,10,1.3531756746025394,139.59071200546353,-1.697066611812414,-6.11711701881213,-2.4327004156225467,-2.1775206131210725,-3.399728435444337,-2.6013574624991214,-0.731564819707716,-0.4909236146583142,-0.6547161137493387,1.2267884625575851,1.5885734576622752,1.626317732815963,9.670255752758317e-05,6.608805312325798e-05,8.62910852038796e-05,4.362752396796444e-05,2.9815738025425368e-05,3.895580932813652e-05,0.0195863881832314,0.0145430602419028,0.0168645306775707,135.2095070422535,108.42003514938489,123.32428401693112,283.71830985915494,199.1388400702988,234.83735983563952,939.8169014084508,857.8045774647887,899.3905222489005,5.204094755368594e-05,3.956171225313543e-05,4.456352304133205e-05,50.891036906854126,42.11443661971831,45.7788198140218,0.7415099254189742,0.5423524734154518,0.6706224381201507,1.0665495924401638e-12,3.458948840563504e-13,6.46423197207388e-13,0.6669691463546029,0.6499657516091657,0.660295806162012,6.357359492042231e-07,3.362664929042545e-07,4.854113749735571e-07,5.665724230074843e-05,3.33912767172944e-05,4.22680248571299e-05,0.0069626141367119,0.0039048110822683,0.0051826674452611
75.0254176387666,66.84811885372734,71.43023521052731,65.67064083457527,58.16542473919524,62.480273467631285,0.0097978851705433,0.0040585260940147,0.006860441050548,0.0002086606781722,0.000133956446464,0.0001718831459464,1,5,R BICEPS BRACHII,uni-articular,65,86,0.7558139534883721,21,10,1.599352000381174,140.944681797246,-1.5372677260307204,-3.833071483020853,-1.917126709768718,-1.8602496085643083,-2.3994750011011488,-2.0643422359490127,0.4749647547078839,0.4170996095053436,0.5745814658113099,2.8447755556712235,2.880608052048016,3.1463731963921138,0.0001640456841635,9.485472902157936e-05,0.0001301163504199,8.74302256343993e-05,5.070471217754004e-05,6.939738492280832e-05,0.0416219233282763,0.0250920445086741,0.0323560896580628,164.62407132243686,131.34128166915053,151.19163033152267,239.45319465081724,195.1356184798808,218.038794640188,1140.7928464977645,1010.1931649331352,1084.7509258172547,8.240142490579817e-05,5.473418960342954e-05,6.67506522889137e-05,69.42324888226528,54.41281669150522,63.72742552310428,0.3537476776410537,0.2807321741784854,0.3268681766043795,7.035859443888612e-13,3.4572458900189765e-13,5.170540362428337e-13,0.6886284503986613,0.6630398868105339,0.6753720414099535,1.5759007011813615e-06,6.722744960055253e-07,1.0822117918073426e-06,0.0001420989215353,6.406383392722072e-05,9.656572134768446e-05,0.0171011977977144,0.0084538427705148,0.0116744102805189
75.94798994979158,64.93367003515515,72.13489704079763,69.82322357019065,54.45501730103807,64.70048814713978,0.0024585836394768,0.001689325265913,0.0020139920543356,0.0001216031779985,0.0001010388293378,0.0001097983410808,1,5,R BICEPS BRACHII,uni-articular,66,86,0.7674418604651163,20,10,1.3746168384606676,142.54482791480712,-1.4706686439369183,-4.431122313030141,-1.8329139806466408,-1.4950156375998258,-3.1326916702100323,-1.7765100366997844,-0.8224138166017385,-0.420449731304415,-0.7507748501190091,0.8985837183511345,1.7545397229071296,1.3200622374818292,8.700693878379431e-05,7.21672995894044e-05,7.737516182431073e-05,3.9944408750622016e-05,3.3074290598162296e-05,3.5484091092577615e-05,0.0165335178099264,0.0158722517824147,0.0162581169758608,159.2842287694974,121.97923875432528,143.93993111568207,248.74523396880417,204.7508650519031,224.6252161380405,918.6117850953208,877.8148788927335,898.4668891514197,4.450161630713975e-05,4.053103076315442e-05,4.27069341125646e-05,67.64124783362219,45.821490467937615,54.52045140617161,0.4484987057745729,0.260542444501274,0.3682372500315904,6.231573618182229e-13,2.9272597249135205e-13,4.2564208769782797e-13,0.7128498406564848,0.6597108496434796,0.6877844421027007,4.778584391938059e-07,3.85370028797414e-07,4.3096224830045433e-07,4.21311202042277e-05,3.73968923300671e-05,3.96895548549943e-05,0.0056043140125659,0.0046330696974361,0.005099964159193
82.6792242188827,74.46136929129938,78.47650707491225,78.09228441754918,64.85757575757576,70.5408624826174,0.0105913441208473,0.0026808696708936,0.0060857173942551,0.0002210293499499,0.000111556813761,0.0001612552124606,1,5,R BICEPS BRACHII,uni-articular,67,86,0.7790697674418605,19,10,1.5723520162635225,143.92023887044772,-0.9847511518091135,-1.4547834352608464,-1.0750408207000048,-0.7677232218401379,-1.0770335278521554,-1.0193545215441873,0.6152256003729417,-0.0699233626974329,0.3627181217895655,3.121280256635433,2.114346117762189,2.833737738527258,0.0001769484367675,8.468439710292245e-05,0.0001231935738133,9.2760896160899e-05,4.4393726837115824e-05,6.460980249882682e-05,0.0454187413547753,0.021877336301596,0.0322610647051584,161.89863842662632,144.97575757575757,151.2525764452391,219.37121212121207,200.29545454545453,212.90200033619087,1154.0833333333333,1020.5530303030304,1068.9927566130289,9.108439560265018e-05,4.634075252067542e-05,6.801371744540285e-05,76.18759455370652,41.96666666666667,55.281218386589046,0.523406673238516,0.2312131542821824,0.3736810184585624,4.846672209363861e-13,1.7464306420887099e-13,3.070399046357037e-13,0.7211165692090187,0.7036226656857076,0.7152671502365934,1.8104820612342617e-06,4.818237187252938e-07,1.078537746819626e-06,0.0001752716802243,5.067798383021042e-05,0.0001070456610358,0.0221931990137485,0.007917838721736,0.0142537910231137
75.99360797956834,60.86397004516663,69.49266469781783,69.71661237785017,55.36319218241043,63.56514657980457,0.0037977673821569,0.0024798530652301,0.0030944303364231,0.0001421413512804,0.0001147873031919,0.0001277664680192,1,5,R BICEPS BRACHII,uni-articular,68,86,0.7906976744186046,18,10,1.4619697282530808,145.49338500389118,-1.4673755482372606,-5.702447737502245,-2.148681895153367,-1.504392459593958,-2.953226484085103,-1.923697542142953,-0.5856844380028309,-0.1409858592018825,-0.4553078592857653,1.3577196355897043,2.224856906613224,1.8486197035104623,9.655779915524628e-05,8.07528410081237e-05,9.015071783368168e-05,4.7090141923209856e-05,3.938224335106271e-05,4.39654811357272e-05,0.0218665783707898,0.0170288445546782,0.0193488275147732,143.5342019543974,94.32247557003258,125.07980456026058,241.95765472312704,200.94788273615637,221.4527687296417,978.0830618892508,869.4071661237786,919.3023887079262,5.478059919490181e-05,4.258822085713285e-05,4.805432780916741e-05,75.86807817589577,47.16123778501629,62.19815418023887,0.7923569431808191,0.1417060251188445,0.4221692744533559,9.149405535093772e-13,4.716849061499839e-13,6.366263782893072e-13,0.6838254207632289,0.6352933004038946,0.660280569550704,7.214869124401612e-07,4.852492945390706e-07,5.688722645796182e-07,6.385585012139844e-05,3.7647860899576745e-05,4.905728190050746e-05,0.0075454503077427,0.0041082178298941,0.0056988277753278
76.07389408034155,71.46970122132596,73.22310541211239,66.64234620886981,57.80200860832138,61.95299632117755,0.0089500428098234,0.001834834298037,0.0052318466232615,0.0001922397984228,8.672882547664366e-05,0.000140678011245,1,5,R BICEPS BRACHII,uni-articular,69,86,0.8023255813953488,17,10,1.6612931404158076,146.9561488493242,-1.4615798175910135,-2.389344628541663,-1.702864369804582,-1.7747847701597024,-2.4712899619702737,-2.1326992926239257,0.3250904777088438,-0.3690100253530229,0.1292104504596599,2.477682748433965,1.2650133371982664,2.2284307207277423,0.0001471646190581,6.386206975997669e-05,0.0001077852574254,8.147239037613014e-05,3.545638344894655e-05,5.970524157164446e-05,0.0386868037828925,0.0174587809192327,0.0282722331686197,155.3428981348637,131.483547925608,142.5729473477517,244.95565092989983,222.1764705882353,236.99478177816368,1119.9139167862268,934.793991416309,1047.9715026385304,7.676085791329548e-05,3.619180699642572e-05,5.646632862591367e-05,61.41463414634146,39.73888091822095,54.130809265679126,0.6306407816721771,0.2687714782153443,0.4439366403680936,4.222898626308564e-13,2.896656157720092e-13,3.498229100929318e-13,0.7087309834818758,0.6960111336683847,0.7007650179146045,1.3287697223696422e-06,2.856788873617764e-07,7.789599513652543e-07,0.0001262830982952,2.821253676266449e-05,7.538387783328637e-05,0.0171806911615532,0.0039134541863404,0.0102996971911103
80.56158119704331,61.214857929596384,69.8974991708577,88.13000000000001,56.560732113144766,69.9130218154927,0.0031425381629125,0.0017526880050235,0.0025084530750156,0.0001322417076917,9.871101174208564e-05,0.0001172353659502,1,5,R BICEPS BRACHII,uni-articular,70,86,0.813953488372093,16,10,1.4294109238759063,148.61823610691994,-1.1376205581108914,-5.5928345744405545,-2.10030093516252,0.1151284767298818,-2.716579632284371,-1.1007487946586283,-0.7015102212528205,-0.3980500175509908,-0.6155548081353319,1.136410667306992,1.67490814871005,1.5388326765633589,9.589944837733744e-05,7.174527342113342e-05,8.621221872387166e-05,4.570267595425136e-05,3.419155206725977e-05,4.111013652034477e-05,0.019808450860371,0.016881647525799,0.0179589904991873,144.785,125.69051580698836,132.1251719356628,228.71833333333333,182.25124792013312,200.63930486226656,955.2479201331116,916.9716666666668,937.4243067110372,4.828176097680685e-05,4.033405153784015e-05,4.400641120029524e-05,92.32666666666668,39.80199667221299,65.72566555740434,0.6301010078527963,0.3079073184170683,0.4524526706003562,1.0876501550129482e-12,3.564539362088934e-13,7.030717365267327e-13,0.6731623470545474,0.6389281357226783,0.6515121021240408,5.928577926455434e-07,3.922203250827368e-07,4.769407454838553e-07,4.857896939210765e-05,3.370907259144459e-05,4.068405852749569e-05,0.0053303689661987,0.0034592246496416,0.0046495247476203
86.96064960462905,73.25105725899935,78.5179875486598,75.34173228346458,67.41102362204725,70.71548556430447,0.0086204370404835,0.0046766998353569,0.0063423724952157,0.0002069336514436,0.0001524389773516,0.0001760550334389,1,5,R BICEPS BRACHII,uni-articular,71,86,0.8255813953488372,15,10,1.511999110588761,150.04844114797578,-0.675681610770082,-1.832870385648525,-1.0700835720603017,-1.0096437667724416,-0.5724445927726017,-0.996716104590384,0.2668256060025135,0.6356336414987042,0.4329054815120654,2.806167448209415,3.512871092081171,3.2690950743669784,0.0001625052753895,0.0001075018493754,0.0001330105199135,8.196254954116981e-05,5.422055151181984e-05,6.708632259342397e-05,0.0393949040475408,0.0294885829743257,0.0332028525982833,162.57952755905512,140.7700787401575,148.7007874015748,267.66141732283467,200.2503937007874,226.0251968503937,1147.9700787401575,1042.888188976378,1106.3338582677166,8.43828796152432e-05,6.662563316951146e-05,7.442799990691322e-05,55.51496062992126,43.61889763779528,48.90603674540682,0.4597013088358305,0.2021512855182839,0.3308322410298609,4.374233083195855e-13,2.2785756491604054e-13,3.6560917880110683e-13,0.7387675151552932,0.6806407506997353,0.7033362129176948,1.6107214891431878e-06,1.0085903792882384e-06,1.2200790839607194e-06,0.000149025498019,9.55898461283398e-05,0.00011832983636,0.0182164544934293,0.0117391173883691,0.0152093448716977
72.66928934757462,62.726760912152805,66.83761635330958,69.245,54.37541528239203,60.79124953857513,0.0031932693043302,0.0023391161821493,0.0028411951750136,0.0001333637994945,0.0001138845110167,0.0001254125767005,1,5,R BICEPS BRACHII,uni-articular,72,86,0.8372093023255814,14,10,1.4302050410558709,151.56123437574448,-1.7073530186559562,-5.1205342314699145,-2.46598142442732,-1.5458723944886663,-3.148421890661235,-2.283310012611236,-0.69254240660523,-0.1907385362454715,-0.5245599696148118,1.1614953056543509,2.1939735752858582,1.7793767136893537,9.99616541821934e-05,7.964876996258281e-05,8.856174681513546e-05,4.76385961154218e-05,3.795811118153272e-05,4.225133542489941e-05,0.0207351896613644,0.0168316171657262,0.0184572001483199,142.68666666666667,115.0249169435216,130.66830564784053,220.325,173.58305647840533,200.54768549280175,1049.1666666666667,847.7266666666667,950.1848209671466,5.021487304844597e-05,3.91037475433644e-05,4.586249268175169e-05,58.75333333333335,35.671666666666674,46.81165559246955,0.7684957306796937,0.2089892089843628,0.5669354403235168,1.0180557146594866e-12,5.696767921534598e-13,7.426679980652589e-13,0.6673930535562453,0.6499130125062551,0.6581642897739505,6.038010586074585e-07,4.0486634116463924e-07,5.287553136323042e-07,5.254750146562587e-05,3.1659300592334115e-05,4.4521269041263846e-05,0.0059753246601832,0.0033260359091138,0.0050828725174333
76.19773693401827,65.05728893250715,71.41366301606355,69.01185185185186,57.820740740740746,65.28148148148149,0.0088441415532403,0.0048424692488758,0.0071385944081495,0.0001972246956374,0.0001459003296281,0.0001758086398014,1,5,R BICEPS BRACHII,uni-articular,73,86,0.8488372093023255,13,10,1.6072931721805332,152.99223353398023,-1.452639791665476,-4.392505253410163,-1.9191072196578367,-1.5663785780839572,-2.4675882898583144,-1.7011891270975932,0.3063701648311009,0.6942357073819997,0.6506479445016838,2.5891213522257663,3.2891925649065823,3.2618470625349905,0.0001466080316443,9.42399569782823e-05,0.0001265631053978,7.860239980934156e-05,5.052579107255008e-05,6.785551719108344e-05,0.0389173603090372,0.0240841579865819,0.0319463199721636,151.08,130.56296296296296,141.13234567901236,264.8562962962963,188.3837037037037,226.9308641975309,1135.8977777777775,986.682962962963,1068.1293827160491,7.723974298920338e-05,5.8741353576739866e-05,6.87159083448534e-05,85.79851851851852,52.22518518518519,69.01185185185186,0.3954561096564269,0.3676212191546542,0.3795451946378483,9.271897159195393e-13,4.223215542993967e-13,5.92312832685076e-13,0.709968637946689,0.6526501871677621,0.6837327664114121,1.2926100344681506e-06,7.757087128818589e-07,1.1103821502701413e-06,0.0001252339903906,7.307518640686062e-05,0.0001000701406418,0.0159322597729028,0.0093568738838425,0.0120671578879677
78.73481882372211,53.46833994864401,66.25842695165106,73.92293577981651,41.50549450549451,59.2669691165104,0.0025374673672769,0.0009912278990614,0.0019166587899734,0.0001307758537914,8.200661718346383e-05,0.0001118012951881,1,5,R BICEPS BRACHII,uni-articular,74,86,0.8604651162790697,12,10,1.2983815891873007,154.6003208233407,-1.2694917359175628,-8.012753803018105,-2.535199193997068,-1.1344318117097607,-5.691657532841481,-2.480920176261068,-0.8084694299813437,-0.6672380079639609,-0.7773925359284265,1.1036411426859325,1.1034728106722476,1.3789819207153693,9.618225374413308e-05,6.210715739939736e-05,8.155107505254601e-05,4.171208144900449e-05,2.688514756367876e-05,3.5327558899829726e-05,0.0161458759482588,0.0132127394842683,0.0145102255104426,138.60550458715596,110.68131868131869,128.52741203750375,233.31926605504583,182.16300366300365,206.25678103751497,903.245871559633,877.8348623853211,891.9182422063155,4.526390035392004e-05,3.522393896750585e-05,3.9806563676800085e-05,73.92293577981651,39.1996336996337,59.26837942892988,1.5294942382092331,0.2633136512664808,0.8015797583060843,1.2455592669985904e-12,3.6690619449058203e-13,7.281697975197343e-13,0.7159076409302929,0.5625290554172063,0.6528128852512131,4.978550519565426e-07,2.627527953728601e-07,4.052377115134247e-07,4.322121287803234e-05,2.5972572574703967e-05,3.3549157075275225e-05,0.0052888815246527,0.0032679162910476,0.0039726008637402
73.96755211627487,64.61797710882699,70.25865956706924,70.35588235294117,59.24705882352941,66.65294117647058,0.0124439183846553,0.0050889296387149,0.0079172807757629,0.0002323506878556,0.0001484426293993,0.000181884819661,1,5,R BICEPS BRACHII,uni-articular,75,86,0.872093023255814,11,10,1.6192049298794586,155.8994965297079,-1.6136334178412146,-4.529740993658762,-2.057139376938033,-1.448166460887577,-2.1857323990477124,-1.5233908881102838,0.9427077376649696,0.78136328837768,0.8635949694784933,3.3743715511905807,3.376161291852013,3.440586351317604,0.0001812544646859,0.0001034552865918,0.000136005036645,9.789756631171344e-05,5.587735892170945e-05,7.345784346195836e-05,0.0461818271315216,0.0275336483337245,0.033839967015078,155.5235294117647,124.0485294117647,143.79754901960783,251.8,174.03823529411764,211.06764705882355,1164.575,1025.714705882353,1076.321568627451,9.195066688753352e-05,5.839521109159305e-05,7.030531427647538e-05,72.20735294117647,38.88088235294117,61.0985294117647,0.6056505250552101,0.3399112818775902,0.4423245828548166,7.376918840213748e-13,3.796225632178772e-13,5.520630416281968e-13,0.7064499209452111,0.6423917745728231,0.6759942208005892,1.942759648426146e-06,8.140477254924356e-07,1.208626413833969e-06,0.0001767984353133,7.112130390109774e-05,0.0001085733525747,0.0212772823539619,0.0080580976010743,0.0131944585847668
75.83083281058217,63.357197268332406,70.3320135689171,70.86303939962475,56.4785046728972,63.70609317739474,0.0021187755824694,0.0014119268694639,0.0018702188122149,0.0001217769236575,9.98226916413507e-05,0.0001142446001418,1,5,R BICEPS BRACHII,uni-articular,76,86,0.8837209302325582,10,10,1.2705874878897134,157.5194955767673,-1.4791260383750997,-4.923593481514304,-2.04837298656144,-1.4035602498001496,-2.7328286644600968,-1.9054249987103256,-0.8824821609331011,-0.5185143788141937,-0.7900924566088966,0.902467845308661,1.71293725397316,1.4508551370767508,9.279454465855546e-05,6.186134197670517e-05,8.123165948332264e-05,3.943215360788497e-05,2.6189114593791785e-05,3.443871130610274e-05,0.0175228284357447,0.0132065475508304,0.0158113244275912,151.17448405253285,127.07663551401868,139.20503235082674,229.1238273921201,183.55514018691588,208.42269525930345,1030.7327102803738,876.3395872420263,960.0860128701934,4.644907385602163e-05,4.018684023259238e-05,4.310787555049819e-05,63.77673545966229,35.29906542056075,47.985241944439565,0.8418894731148159,0.3135627283395021,0.4991077443659097,9.008187597629378e-13,3.289387569739436e-13,5.261600104703695e-13,0.6713134567788317,0.6444200414765133,0.6575500965030155,5.257414325777255e-07,3.7688045077101546e-07,4.572074779251025e-07,4.78087099411793e-05,3.5932541513229894e-05,4.051262998959218e-05,0.0062409441853042,0.0041253409365178,0.0050278507704635
73.56996135228286,70.60297516284908,72.56451582210488,66.8335724533716,59.60832137733142,64.36141334652427,0.0095651737223843,0.002640563978936,0.0068166313289421,0.0001990417551546,0.0001042748136042,0.0001625887482619,1,5,R BICEPS BRACHII,uni-articular,77,86,0.8953488372093024,9,9,1.6612931404158076,158.79087718183695,-1.6423348861320015,-2.660099445089521,-1.7815710974339851,-1.7579657625495713,-2.114343008317071,-1.820468238792548,0.4338280273419548,-0.0841720516771049,0.5626008401460371,2.629742164828886,1.8652384828444843,2.872965550440641,0.0001538424571164,7.696252502293337e-05,0.0001210623123697,8.516933487701578e-05,4.272978950836412e-05,6.70625417567388e-05,0.0406972534802939,0.0205549972298834,0.0313489562742195,140.89239598278337,130.0545193687231,137.1453952459242,255.7625178826896,187.8565279770445,219.52342179064303,1145.202295552367,988.8283261802576,1063.5745305345,7.948341875876268e-05,4.315446903730198e-05,6.435587434755847e-05,84.89670014347203,50.43204577968527,63.77481392082288,0.4097059131161563,0.2297650800525066,0.3002456682344233,5.577086597005065e-13,3.294382645334031e-13,4.358658571819671e-13,0.7152186590289137,0.6856611371691947,0.7000412861694021,1.4485311327778867e-06,3.973300852578369e-07,1.0146634815582171e-06,0.0001328924646785,3.952249236195578e-05,9.198369924288448e-05,0.0165526084672356,0.0055621218007845,0.0113400871777288
74.88667764143207,62.79294040903876,69.8888428197388,66.86996336996337,55.34065934065934,62.25824175824175,0.0024689957555265,0.0010830688239531,0.0019628119669854,0.000128823144194,8.608150923106279e-05,0.0001136660060903,1,5,R BICEPS BRACHII,uni-articular,78,86,0.9069767441860463,8,8,1.2999698235471726,160.45296443943266,-1.5472831539400085,-5.099860551056895,-2.101335438410243,-1.7547650559483865,-2.957679217497716,-2.0931267835905056,-0.8205732523208362,-0.6347708126168988,-0.764771046524332,1.059987839161893,1.2428695009572843,1.4338349876338026,9.269915006432552e-05,5.725100330885852e-05,7.858423607810226e-05,4.020153767682425e-05,2.482847323799583e-05,3.4080216758255624e-05,0.0185784954971356,0.0116963064657271,0.014876764877032,136.04578754578753,101.45787545787546,123.74786324786324,244.42124542124543,184.46886446886447,209.83333333333331,984.602564102564,783.992673992674,854.7057387057388,4.840143385029298e-05,3.356313538415978e-05,4.150094058311686e-05,57.64652014652015,36.8937728937729,46.11721611721612,0.5915353851005408,0.1908729276030138,0.4167624339676526,5.659674122020594e-13,3.4030880760025114e-13,4.251553208533274e-13,0.7180859687067289,0.6558182494581828,0.683927615469433,5.868959935129643e-07,2.6153168027352493e-07,4.5615953492989684e-07,5.527763795198701e-05,2.487680034294452e-05,4.087191506872061e-05,0.0072554822084068,0.0033413078428648,0.0052512264014365
71.2588628796066,64.56853401898043,68.3216647726497,64.01694915254238,49.24380704041722,58.54541503694046,0.0119095368666026,0.003676556015709,0.0083553379361271,0.000201543612339,0.0001120058782996,0.0001644923787793,1,5,R BICEPS BRACHII,uni-articular,79,86,0.9186046511627908,7,7,1.8264695138414595,161.75372838015977,-1.809169545127592,-4.54518642141536,-2.288625759378747,-2.005697494430524,-4.162483220869544,-2.574463606775564,0.8482443711592004,0.2820672460605462,0.9833902721178022,2.6856717977796487,2.1297080242042536,2.928963492018162,0.0001560016791965,7.7772016671431e-05,0.000122259699258,9.503835420472169e-05,4.737977504923557e-05,7.448227905554405e-05,0.0462731644579751,0.0215133757708958,0.034401958751442,151.0143415906128,141.16558018252934,144.9956540634507,259.3507170795306,215.03129074315515,233.63450673620164,1139.173402868318,915.93481095176,1036.308561495002,7.856796746731223e-05,4.332796654093594e-05,6.231601589975473e-05,42.67796610169492,39.39504563233377,41.58365927857454,1.3302438439008897,0.4782240566800277,0.7625422971969765,5.133868146758252e-13,4.228478967900123e-13,4.56185003036376e-13,0.6911311649956803,0.6543105914216119,0.6762177801365868,1.4425903842105834e-06,4.320805755399611e-07,9.717179260833054e-07,0.0001341274006109,3.97062075593001e-05,8.897339783986678e-05,0.0173862275503996,0.0052602198208023,0.0116215946262443
80.20733844035595,54.11504174226408,65.27488939857096,72.42978003384094,48.99661590524535,58.22786238014664,0.0050705860997531,0.0016396234862072,0.0031321468204122,0.0001705648117288,9.718561278444944e-05,0.00013070048359,1,5,R BICEPS BRACHII,uni-articular,80,86,0.9302325581395348,6,6,1.407175642837842,163.58099201118117,-1.1631928001474476,-7.810731925655292,-2.6527398042315578,-1.2657600084230467,-4.211330864635044,-2.615631643554168,-0.3606864974793044,-0.4380200834399923,-0.4449935486825562,1.993133087650191,1.6227262593311584,1.9349278557566083,0.0001215358316722,6.586540005424894e-05,9.351454978522653e-05,5.7051371340989445e-05,3.091854760290796e-05,4.389761630108728e-05,0.0204624327841538,0.0156396168957329,0.0177726235276436,153.38071065989848,100.12351945854483,120.00620417371684,227.9407783417936,168.2927241962775,205.92780597856745,996.97461928934,828.6818950930626,908.9227298364356,5.000583870552682e-05,4.2355954683533525e-05,4.513800962346922e-05,68.16920473773266,36.21489001692047,49.70671178793006,1.1912817813618874,0.2715115263802604,0.7755132337026437,1.1514493763089886e-12,2.6810848468575893e-13,7.023260298932563e-13,0.6996338493355606,0.6082257116020678,0.6561841846879046,7.855994985295152e-07,3.7651585935960937e-07,5.450379105264525e-07,5.4025531387878793e-05,3.827611099595285e-05,4.367925277069705e-05,0.0056169727278753,0.0046433650324656,0.0051778651128833
86.4189055717199,71.95805956092137,79.52720410254624,82.15022761760244,61.32115677321158,72.09675268633426,0.0123849484405112,0.0035013571220546,0.0080320889096276,0.0002397958697691,0.0001274458190157,0.0001875249280881,1,5,R BICEPS BRACHII,uni-articular,81,86,0.9418604651162792,5,5,1.5659990788240634,164.98896177119894,-0.7147892827545786,-2.236787345472162,-0.9494741156841102,-0.4108131243742207,-1.7758681953399829,-0.8176464149996017,0.9322835383648004,0.2201317122930506,0.8949915003109967,3.5408104247915286,2.657888061584716,3.606497991890407,0.0001761178804499,9.366074662134932e-05,0.0001405232502365,9.19058359456787e-05,4.90249658645506e-05,7.338063217088464e-05,0.0494519720623576,0.0250757847713107,0.0375148311715817,164.8006088280061,131.8224582701062,151.89160582620994,270.19634703196346,228.0380517503805,247.59153707514653,1142.1065449010655,955.2352048558422,1074.0672397718358,0.0001044762586326,5.956479723850836e-05,8.061153164327228e-05,72.81887366818874,40.11987860394538,60.64168454733238,0.4713303690491984,0.2594539942414562,0.3459760775936231,4.609920288743713e-13,1.912862862344439e-13,3.233279363868373e-13,0.7381959903014387,0.7101374349689678,0.7207906618275935,2.30124573426961e-06,6.967457717554057e-07,1.4555444432728715e-06,0.0002295855838102,7.845054724064726e-05,0.0001465915767069,0.0302525097696832,0.0117956427164767,0.0197437241482195
68.97485130718273,60.43680378511055,64.86848395806432,60.42321116928447,52.82517482517483,56.45837808206918,0.0225443238911986,0.0116624290616305,0.0176209553716905,0.0001854825779086,0.0001335916785824,0.0001626731896006,1,5,R BICEPS BRACHII,uni-articular,82,86,0.9534883720930232,4,4,2.726204278703364,166.55575496720294,-1.9740488422810607,-5.835889349469199,-2.7013085074093586,-2.321779142358646,-3.4547661839238555,-2.84503043176746,2.728170510962804,3.1051975717244926,3.517254674449341,2.326623421190195,2.8681298232199244,2.875449509964207,0.0001317335455412,9.478638047487614e-05,0.0001173061940067,0.0001199099628199,8.612837113841008e-05,0.0001066609279645,0.054457623701843,0.0368461798043038,0.0456556640802327,150.5087260034904,125.4597902097902,136.0104844254059,246.087260034904,182.68706293706293,210.056767330982,1041.476439790576,946.451048951049,1008.2071815618935,7.135743617788362e-05,4.848504472697666e-05,5.870994877877999e-05,61.52181500872601,38.51835664335665,48.75406654137021,0.9576044660555618,0.6061605547665012,0.7353297844799288,9.653638737945913e-13,5.42603985463877e-13,7.192234909693929e-13,0.7271390674510568,0.6876192752362815,0.7033065915417778,1.1840192217382489e-06,5.809559989388714e-07,8.75501873814979e-07,0.0001064745094592,4.912247532660118e-05,7.392349702858446e-05,0.0132578093057911,0.0058107405682344,0.0087257174849952
72.99669973105182,60.16590270637999,65.62502340404197,62.60849909584088,53.501808318264025,57.29626280892105,0.0122786971939898,0.0082328670548981,0.0105865479912888,0.0001418276647971,0.0001161507121782,0.000131438721778,1,5,R BICEPS BRACHII,uni-articular,83,86,0.9651162790697676,3,3,2.634086685831363,169.28275336308624,-1.683717764544183,-5.920515594586607,-2.610895987960359,-2.1295755336812,-3.3210560821953035,-2.736405709179597,0.913501357277349,1.892794062518221,1.5935583232180746,1.3507070970708714,2.27149733241618,1.9566441597054032,0.000105679559209,7.616425262952601e-05,9.401086365827289e-05,9.283684867769257e-05,6.690839031632706e-05,8.258619158542477e-05,0.0458969236142032,0.027812073083449,0.0370162135250579,150.2603978300181,133.1853526220615,139.63592525617844,237.9122965641953,193.5171790235081,216.2839059674503,1048.4077757685352,875.380650994575,982.384267631103,5.729028938821408e-05,3.862802763348172e-05,4.771967311763196e-05,50.0867992766727,36.42676311030742,43.63622664255576,0.6697309746788019,0.4768391256468495,0.588345154763737,8.673518101797471e-13,4.3599470998140764e-13,6.678950253807326e-13,0.713087038782117,0.6991097707739267,0.7041107397612688,7.32732172825345e-07,4.049405660228822e-07,5.745103336239935e-07,6.887989246161546e-05,3.154637217514228e-05,4.937935227853227e-05,0.008812827365693,0.0035377527561869,0.0059481734653303
72.07103561122814,66.20209259467255,68.89492491527868,64.8412017167382,58.35708154506438,61.95937052932761,0.0213365697076788,0.0087794797771026,0.0162660011362609,0.0001777488919271,0.0001138853472032,0.0001526083367128,1,5,R BICEPS BRACHII,uni-articular,84,86,0.9767441860465116,2,2,2.774645426679172,171.91763416609754,-1.7505400395796569,-4.034882331494546,-2.2201165837232715,-1.9332016391361968,-2.361601541877701,-2.131872930035102,2.514674118904854,2.0860301612610064,3.1467159242991443,2.1537349681624884,2.194002180122285,2.579377851710762,0.0001299870876253,8.066164173025159e-05,0.000110598874479,0.0001202819357296,7.463924751051874e-05,0.0001023412936998,0.05818224094532,0.033319514555129,0.0460766388262794,146.97339055793992,130.76309012875535,136.52675250357655,274.49442060085835,193.44291845493564,230.9067238912733,1060.1536480686696,914.2609442060086,997.113590844063,7.089867919718426e-05,4.259424723619726e-05,5.753557619288152e-05,46.46952789699571,38.90472103004292,42.50701001430616,0.575984231768708,0.5462075040575802,0.5565267529034913,6.534013067627116e-13,4.258627420130625e-13,5.187844598226022e-13,0.7308872525749576,0.6924355216507836,0.7114296873178977,1.1330093943329784e-06,4.425343383121112e-07,8.289344768591225e-07,0.0001060485710304,3.921097045920329e-05,7.370373891344758e-05,0.0136336390310965,0.004929209240418,0.009076100629661
69.03426681444152,53.38946309662524,60.201271697054274,56.92287234042553,41.74403183023873,49.63098933348383,0.0062433917485302,0.0002677268828562,0.0037344582047677,0.0001486653585746,3.071230173982678e-05,0.0001027418561906,1,5,R BICEPS BRACHII,uni-articular,85,86,0.9883720930232558,1,1,1.7923224751044415,174.69307370995662,-1.9697597278146008,-8.03739398475643,-3.259077730897602,-2.629646012588713,-5.644519975680383,-3.730144081709544,-0.1533680066673934,-0.9230068697718566,-0.280279714277992,1.503565423915675,-0.6512381656572468,1.1124859116111312,9.281036709484514e-05,1.5859577666995722e-05,6.56691517647394e-05,5.543558066348177e-05,9.498110850607444e-06,3.923254581323434e-05,0.0233268120816873,0.003768012276873,0.0157410133357152,155.28779840848807,90.40691489361704,124.31135833474424,227.6914893617021,189.18484042553192,210.20192425268544,899.0465425531914,238.77586206896552,639.8915994130595,4.921109097022525e-05,9.226788107868148e-06,3.52277152986847e-05,48.55186170212766,41.74403183023873,44.05031557461859,2.003953138975189,0.4844214732174144,1.1624841148462586,1.4388738891803356e-12,5.186022597118497e-13,1.122418352360314e-12,0.6921306973582619,0.636799905161082,0.6607403313862003,6.423315551122529e-07,2.5142290687030155e-08,4.134280106366516e-07,5.071404515005375e-05,1.7674902560251885e-06,3.290989007184733e-05,0.0062394735385546,0.0001822481785286,0.0036366264204567
